Time [s],Longitude [rad],Latitude [rad],Altitude [m],V North [m/s],V East [m/s],V Down [m/s],Roll [rad],Pitch [rad],Yaw [rad]
0.0,0.573337071406794,0.6089844335224215,-19.859909,-1.929191,-0.641182,0.006672,-0.004956735075663896,0.005969026041820607,3.3442253971996276
1.0025062656641603,0.573336758469259,0.6089843305479956,-19.867016,-1.989434,-0.476583,0.004822,-0.014067353771074298,0.007539822368615503,3.273574381812434
2.0050125313283207,0.5733364362814791,0.6089842589894964,-19.873699,-2.037641,-0.309663,0.009325,-0.00815068760681352,0.00905825881785057,3.211091838937133
3.007518796992481,0.573336107635981,0.6089842186723905,-19.887194,-2.07378,-0.160386,0.017127,-0.01075122819228507,0.008726646259971648,3.1591506135049787
4.010025062656641,0.5733357737544951,0.6089842057569541,-19.911047,-2.102422,-0.038982,0.025785,-0.01101302758008422,0.006981317007977318,3.1200902844716856
5.012531328320802,0.573335435509686,0.6089842134364029,-19.93936,-2.124815,0.04721,0.025236,-0.01033234917180643,0.004136430327226561,3.093107406969391
6.015037593984962,0.5733350942978173,0.6089842350784855,-19.961788,-2.144152,0.106313,0.0149,-0.0108035880698449,0.0020943951023931952,3.0766141851643845
7.017543859649122,0.5733347508170205,0.6089842652726816,-19.971588,-2.162604,0.146749,0.002068,-0.008360127117052838,0.0018500490071139892,3.069458265418038
8.020050125313283,0.5733344047182298,0.6089842989575361,-19.971121,-2.182909,0.171055,-0.004726,-0.011484266478122689,0.002670353755551324,3.0696153974105944
9.022556390977442,0.5733340551287807,0.6089843356094504,-19.96789,-2.206749,0.174899,-0.004531,-0.003892084231947355,0.004310963252425994,3.0775215294826186
10.025062656641603,0.573333702048673,0.6089843715632329,-19.966045,-2.227158,0.161244,-0.002442,-0.00481710873550435,0.005829399701661061,3.090751037946273
11.027568922305765,0.5733333451288409,0.6089844047244888,-19.969362,-2.239458,0.138572,0.006496,-0.008674286382411817,0.006911503837897545,3.10630204375459
12.030075187969924,0.5733329868127455,0.6089844305553618,-19.985052,-2.242814,0.101236,0.022089,-0.013124875974997358,0.0060911990894602095,3.1234759614211667
13.032581453634084,0.5733326373978292,0.608984446437858,-20.015512,-2.088961,0.007983,0.040297,-0.009232791743050004,0.00015707963267948965,3.24039565527873
14.035087719298245,0.5733323295217492,0.6089844106586082,-20.019623,-1.775735,-0.455404,-0.037497,0.02696533694331239,-0.026825710603152843,3.5359498155312044
15.037593984962406,0.5733320764490076,0.6089843115239069,-19.965492,-1.441507,-0.874935,-0.061752,0.0645771823237902,-0.010000736613927507,3.7987963659749657
16.040100250626566,0.5733318924913045,0.6089841607274594,-19.909838,-1.094613,-1.146108,-0.053509,0.01876228945893904,-0.008325220532012952,4.02659649559917
17.042606516290725,0.5733317594972155,0.608983923537214,-19.86515,-0.774255,-1.34793,-0.03217,0.09370672753957555,0.0005061454830783556,4.22819993128264
18.045112781954884,0.5733316704854237,0.6089836542329105,-19.861099,-0.471191,-1.505276,0.011289,0.013578661580515884,0.0022514747350726853,4.408823776318854
19.047619047619047,0.5733316235360667,0.6089833575269377,-19.875912,-0.183405,-1.641513,0.009348,0.04883431247080134,-0.004153883619746504,4.573792751002962
20.050125313283207,0.5733316207435399,0.6089830360372894,-19.878002,0.09604,-1.732396,-0.01027,0.04944517770899936,-0.0034557519189487725,4.724082389667079
21.052631578947366,0.5733316579190529,0.6089827016322048,-19.864986,0.366685,-1.774474,-0.018758,0.027733281814189895,-0.002775073510670984,4.860899098796765
22.05513784461153,0.5733317361098035,0.6089823612930007,-19.85161,0.616441,-1.790502,-0.007875,0.04143411644234538,0.00015707963267948965,4.979843322226763
23.05764411027569,0.5733318507779354,0.6089820195575331,-19.855021,0.835383,-1.807341,0.010664,0.03787364476827695,0.0016057029118347831,5.072380714074088
24.06015037593985,0.5733319987818559,0.6089816746804729,-19.873007,1.018309,-1.834246,0.019332,0.028379053637427796,0.000767944870877505,5.136155428914396
25.062656641604008,0.5733321764563737,0.6089813245674248,-19.88909,1.166824,-1.866466,0.010532,0.01907644872429802,-0.0014311699866353504,5.170276388898082
26.065162907268167,0.5733323743767109,0.6089809669494611,-19.892498,1.266672,-1.905228,-0.002418,0.018989182261698306,-0.00445058959258554,5.171637257022447
27.06766917293233,0.5733325839907542,0.6089806014775159,-19.884348,1.296257,-1.964116,-0.007797,0.011955505376161158,-0.004310963252425994,5.138092081158994
28.07017543859649,0.573332792208534,0.6089802251845291,-19.880373,1.248549,-2.045764,0.000876,0.002495820830351891,-0.0026354471705114374,5.075713926426253
29.07268170426065,0.5733329885580748,0.6089798359761059,-19.885546,1.133686,-2.14182,0.006875,-0.0074176493209759005,-0.0005061454830783556,4.991397174982163
30.075187969924812,0.5733331616947365,0.6089794310597194,-19.890495,0.974678,-2.229052,-0.004163,-0.008045967851693859,-0.0004886921905584122,4.8966259362252105
31.07769423558897,0.573333305160801,0.6089790127042978,-19.880943,0.782552,-2.285249,-0.016873,-0.014538592669112765,0.001239183768915974,4.79693262463154
32.08020050125313,0.5733334133712147,0.6089785859712956,-19.86989,0.56663,-2.314753,-0.003943,-0.019128808601857852,0.006056292504420323,4.699543496716352
33.08270676691729,0.5733334858023786,0.6089781566202996,-19.878511,0.349289,-2.337136,0.015315,-0.008831366015091307,0.007714355293814937,4.611491391607142
34.08521303258145,0.5733335231524246,0.608977721858783,-19.898788,0.154562,-2.355519,0.01605,-0.011187560505283653,0.005864306286700947,4.538798288635238
35.08771929824561,0.5733335299592086,0.6089772846538053,-19.910385,-0.008556,-2.357424,0.004209,-0.009983283321407565,0.004031710572106902,4.482860713001623
36.09022556390977,0.5733335123313832,0.6089768481469594,-19.916616,-0.138979,-2.351917,0.007683,-0.011501719770642632,0.003560471674068432,4.444149537085192
37.092731829573935,0.5733334763776007,0.608976410418383,-19.929974,-0.23351,-2.36121,0.013353,-0.011274826967883369,0.0025830872929516074,4.4223150841703065
38.095238095238095,0.5733334271593158,0.6089759683264835,-19.942638,-0.289486,-2.380352,0.004457,-0.009721483933608416,0.0014311699866353504,4.417654810721387
39.097744360902254,0.5733333709597138,0.608975521347662,-19.942451,-0.305034,-2.399598,-0.006532,-0.007871434926494426,0.0019896753472735357,4.4259628048536825
40.100250626566414,0.5733333152837108,0.6089750705291163,-19.93885,-0.292011,-2.421244,0.000449,-0.0038222710618675817,0.005480333851262195,4.445545573593984
41.10275689223057,0.5733332639710307,0.6089746143000497,-19.947092,-0.253688,-2.456861,0.012866,-0.003560471674068432,0.006841690667817772,4.473017143286838
42.10526315789473,0.5733332208613983,0.6089741596417797,-19.9545,-0.173104,-2.352399,0.015002,-0.0633729051399141,0.014067353771074298,4.552516751088839
43.10776942355889,0.5733332149272787,0.6089737377956994,-19.955349,0.213508,-2.144446,-0.048194,0.01007054978400728,-0.024452062820440556,4.814717756602165
44.11027568922306,0.5733332782827305,0.6089733627244431,-19.891245,0.693372,-1.866998,-0.055885,0.1619316480000339,0.005829399701661061,5.108020197773472
45.11278195488722,0.5733333821298211,0.6089730604334167,-19.867714,1.107072,-1.611277,0.00852,0.08066911802717791,0.02515019452123829,5.336029941440841
46.11528822055138,0.573333564342195,0.6089727883365864,-19.88772,1.3882,-1.521234,0.028484,0.09902998175815826,0.01764527873766267,5.424256195502815
47.11779448621554,0.5733337971691171,0.6089725179850852,-19.904839,1.553047,-1.522809,0.007014,-0.005602506898901798,0.003560471674068432,5.444083432511443
48.1203007518797,0.5733340701386122,0.6089722486807816,-19.892494,1.625238,-1.499059,-0.027709,-0.006911503837897545,-0.006178465552059927,5.449895518546924
49.122807017543856,0.5733343422354426,0.6089719785038133,-19.852997,1.642354,-1.449767,-0.046812,-0.0019373154697137059,-0.009389871375729494,5.452879857034909
50.125313283208015,0.5733346082236206,0.6089717107703062,-19.810329,1.647171,-1.413088,-0.036002,-0.002495820830351891,-0.0058468529941810045,5.452007401848421
51.127819548872175,0.5733348675795474,0.6089714535087744,-19.785767,1.641943,-1.395446,-0.014787,-0.0018849555921538759,-0.000296705972839036,5.447364442065682
52.130325814536334,0.5733351237938816,0.6089711983416378,-19.779331,1.632516,-1.388224,-0.003466,-0.014870205226991687,0.002949606435870417,5.4431412165147535
53.1328320802005,0.5733353784374194,0.6089709443962316,-19.77467,1.616538,-1.377249,-0.010887,-0.01228711793404008,0.005270894341022875,5.439440472728703
54.13533834586466,0.5733356301138977,0.6089706907998913,-19.757929,1.59816,-1.352611,-0.023695,-0.008970992355250854,0.008866272600131194,5.437171998486716
55.13784461152882,0.5733358784742503,0.6089704424395388,-19.733528,1.581688,-1.318021,-0.021322,-0.0020594885173533086,0.01514945790731078,5.435757862913579
56.14035087719298,0.5733361235184772,0.608970201584102,-19.721666,1.568323,-1.292691,0.0016,-0.006911503837897545,0.022671826983406338,5.43340203494253
57.14285714285714,0.5733363664683091,0.6089699635211919,-19.737125,1.554887,-1.286004,0.027552,-0.009337511498169663,0.02707005669843205,5.429579851147125
58.1453634085213,0.5733366076728117,0.6089697265054796,-19.770802,1.538438,-1.286303,0.034999,-0.01054178868204575,0.025743606466916362,5.42580988760294
59.14786967418546,0.5733368464338534,0.6089694900133659,-19.799568,1.519847,-1.277161,0.020255,-0.008604473212332044,0.02223549467040776,5.424012250833263
60.150375939849624,0.5733370825769011,0.6089692554411145,-19.811914,1.504782,-1.249889,0.006323,-0.00905825881785057,0.021031217486531674,5.422929954710809
61.152882205513784,0.5733373159274221,0.6089690264539166,-19.815908,1.489738,-1.220035,0.005324,-0.007400196028455957,0.022218041377887812,5.420137358094448
62.15538847117794,0.5733375461363505,0.6089688027027065,-19.827734,1.473967,-1.201175,0.019972,-0.006230825429619756,0.02452187599052033,5.415983893353721
63.1578947368421,0.5733377737272849,0.6089685813949574,-19.857153,1.456326,-1.195808,0.037722,-0.008936085770210968,0.02426007660272118,5.411532675442605
64.16040100250626,0.5733379974784951,0.608968360436274,-19.9,1.439254,-1.196331,0.043873,-0.005462880558742251,0.02066469834361286,5.40811212681467
65.16290726817043,0.5733382207061064,0.6089681389539919,-19.939085,1.424963,-1.190896,0.031035,-0.00895353906273091,0.014538592669112765,5.406070004323373
66.16541353383458,0.5733384418393226,0.608967919566105,-19.956648,1.41013,-1.170558,0.005465,-0.0072082098107365804,0.009302604913129777,5.405319530198309
67.16791979949875,0.5733386610526766,0.6089677041924753,-19.953852,1.391725,-1.144164,-0.007757,-0.0045204027626653135,0.007592182246175334,5.404586090486743
68.1704260651629,0.5733388762517734,0.6089674919604382,-19.948664,1.376092,-1.125727,5.1e-05,0.00022689280275926284,0.009232791743050004,5.40259725289751
69.17293233082707,0.5733390888328763,0.6089672889786463,-19.957563,1.33607,-1.073567,0.015632,0.05242969072990966,0.01022762941668677,5.342260662150706
70.17543859649122,0.5733392898948061,0.608967081982597,-19.976753,1.234231,-1.174568,0.018715,0.08689994345679768,0.006283185307179586,5.175407238019925
71.17794486215539,0.573339476994102,0.6089668659108355,-19.989799,1.03298,-1.290919,0.006455,0.07394960040699974,-0.004241150082346221,4.965409519125941
72.18045112781954,0.5733396318048065,0.608966638494434,-19.978609,0.768354,-1.361777,-0.025192,0.009459684545809267,-0.007260569688296411,4.748674550066577
73.1829573934837,0.5733397387934898,0.6089663974644643,-19.955606,0.466404,-1.38281,-0.017007,0.02546435378659727,0.0016929693744344998,4.536930873602068
74.18546365914787,0.5733397911533673,0.6089661491041117,-19.936834,0.171219,-1.402233,-0.018121,-0.02035053907825388,0.006213372137099813,4.356656164229423
75.18796992481202,0.5733397937713611,0.608965898649364,-19.928699,-0.102608,-1.398919,0.0046,0.00013962634015954637,0.013631021458075715,4.203486051621108
76.19047619047619,0.5733397499635969,0.6089656438312933,-19.939575,-0.349265,-1.378178,0.013945,0.034016467121369486,0.011414453308042916,4.07300500984921
77.19298245614034,0.5733396674095234,0.6089653911076176,-19.958149,-0.582908,-1.332051,0.022261,0.04843288674284264,0.007086036763096978,3.958005195622133
78.19548872180451,0.5733395502979306,0.6089651469360553,-19.981884,-0.797895,-1.272747,0.027111,0.053791047546465236,0.003438298626428829,3.8619947730962654
79.19799498746866,0.5733394014213453,0.6089649135855343,-20.00812,-0.983642,-1.21634,0.029666,0.057735491655972415,0.001239183768915974,3.7897381595169923
80.20050125313283,0.5733392247940251,0.6089646908815217,-20.032993,-1.143458,-1.167685,0.020241,0.05337216852598659,-3.490658503988659e-05,3.734027214886748
81.203007518797,0.5733390277463525,0.6089644796966822,-20.044903,-1.225516,-1.087942,0.004069,0.03900810878207326,-0.0005410520681182421,3.697253232266983
82.20551378446115,0.5733388226701653,0.608964281776345,-20.040695,-1.26603,-1.034233,-0.007242,0.02298598624876532,0.0009075712110370514,3.695682226500678
83.20802005012531,0.573338615848649,0.6089640899646602,-20.040241,-1.276432,-1.033422,0.010564,0.03275983005993357,0.0023038346126325153,3.7297685591520047
84.21052631578947,0.5733384102488631,0.6089638998983047,-20.062132,-1.251536,-1.100978,0.034073,0.04836307357276287,0.0022165681500327986,3.7916404462286186
85.21303258145363,0.5733382114558614,0.608963691505992,-20.100014,-1.183538,-1.213948,0.036726,0.04431390970813603,-0.001308996938995747,3.8724317023968515
86.21553884711778,0.5733380276726912,0.6089634578064052,-20.12443,-1.075272,-1.332016,0.010495,0.03818780403363593,-0.0056374134839416844,3.966138482296304
87.21804511278195,0.5733378643098732,0.6089631982759454,-20.119186,-0.943918,-1.432608,-0.014628,0.054244833151983765,-0.005026548245743669,4.067088535671166
88.22055137844612,0.573337724683533,0.6089629221648577,-20.099852,-0.794806,-1.517984,-0.016515,0.056007615696498037,-0.0012915436464758037,4.175106875810633
89.22305764411027,0.5733376105389999,0.6089626294731422,-20.092875,-0.62059,-1.60304,0.005487,0.06096435077216193,0.0018151424220741027,4.288465940914494
90.22556390977444,0.5733375257159982,0.608962321946128,-20.10998,-0.418271,-1.681485,0.025068,0.05656612105713622,0.0012740903539558606,4.405123573584871
91.22807017543859,0.5733374756250487,0.6089620016782101,-20.139252,-0.201192,-1.736113,0.024753,0.0555887366760194,-0.003473205211468716,4.521048307595749
92.23057644110276,0.5733374602661513,0.6089616728581791,-20.154282,0.008315,-1.749155,0.001511,0.04951499087907913,-0.009285151620609835,4.632906406996188
93.23308270676691,0.5733374778939767,0.6089613456089443,-20.139883,0.201182,-1.720239,-0.026456,0.04707152992628707,-0.012007865253720986,4.740087460333594
94.23558897243107,0.573337526065064,0.6089610270863559,-20.10675,0.379095,-1.664418,-0.032202,0.04808382089244378,-0.009616764178488757,4.842189326295018
95.23809523809523,0.573337600765156,0.608960721304671,-20.081343,0.542744,-1.599143,-0.01327,0.04401720373529699,-0.005794493116621174,4.936785875047138
96.2406015037594,0.5733376983290612,0.6089604284384225,-20.081465,0.687065,-1.534583,0.011335,0.03815289744859604,-0.0050789081233034985,5.023232085258295
97.24310776942356,0.5733378171859833,0.6089601481385446,-20.098513,0.804745,-1.467452,0.017672,0.02701769682087222,-0.008918632477691025,5.10093405629062
98.24561403508771,0.5733379527980662,0.608959881277702,-20.109753,0.898927,-1.390698,0.002132,0.022514747350726852,-0.014241886696273728,5.171218604894771
99.24812030075188,0.5733381013255855,0.6089596297757568,-20.102423,0.973935,-1.303086,-0.014897,0.021659536017249632,-0.017016960206944712,5.233963226410553
100.25062656641603,0.5733382603250804,0.6089593955525712,-20.084248,1.033521,-1.216221,-0.017385,0.026145032194875056,-0.016720254234105676,5.2888882492786236
101.2531328320802,0.573338426654958,0.6089591761646842,-20.07197,1.080296,-1.143741,-0.005226,0.02392846404484226,-0.015498523757709647,5.335803031184789
102.25563909774435,0.5733385999661529,0.6089589700412995,-20.073792,1.118217,-1.088253,0.006481,0.01345648853287628,-0.016091935703387718,5.374950975746532
103.25814536340852,0.573338779211467,0.6089587736917587,-20.082067,1.147401,-1.042932,0.005808,0.00710349005561692,-0.019285888234537342,5.408478576144418
104.26065162907267,0.5733389622965055,0.608958584149002,-20.081966,1.166586,-0.995744,-0.008825,0.01001818990644745,-0.023579398194443393,5.436700619962337
105.26315789473684,0.5733391474759392,0.6089584021111609,-20.068842,1.181094,-0.951564,-0.017532,0.01733111947230369,-0.025621433419276758,5.460262669584015
106.265664160401,0.5733393349243008,0.6089582287999662,-20.052561,1.194298,-0.917979,-0.0141,0.020176006153054447,-0.02495820830351891,5.478553789958085
107.26817042606515,0.5733395232453271,0.6089580593284959,-20.043346,1.209055,-0.898115,-0.006247,0.020245819323134222,-0.02356194490192345,5.492987593058909
108.27067669172932,0.5733397152315449,0.6089578933476839,-20.0382,1.22461,-0.885734,-0.00784,0.019512781037296607,-0.023701571242082997,5.504715629673657
109.27318295739347,0.5733399096612235,0.6089577291122014,-20.025282,1.237636,-0.86982,-0.020042,0.017558012275062956,-0.02431243648028101,5.5144899621770165
110.27568922305764,0.5733401053126326,0.6089575681928443,-20.002207,1.244732,-0.852003,-0.025582,0.018483036778619948,-0.022741640153486113,5.5216629163368625
111.27819548872179,0.573340302883904,0.6089574095424153,-19.980165,1.248209,-0.840243,-0.017927,0.018430676901060122,-0.01905899543177808,5.526584971720289
112.28070175438596,0.5733405002806424,0.6089572526373156,-19.969139,1.249379,-0.838152,-0.005787,0.017191493132144145,-0.015184364492350668,5.5296220366049775
113.28320802005013,0.5733406973283149,0.6089570964303475,-19.96636,1.250388,-0.837715,-0.003137,0.01494001839707146,-0.013351768777756621,5.532903046159217
114.28571428571428,0.5733408943759875,0.6089569390016489,-19.961521,1.254921,-0.829921,-0.008237,0.01827359726838063,-0.012479104151759455,5.536865310080386
115.28822055137844,0.5733410924708576,0.6089567827946809,-19.951757,1.263981,-0.817151,-0.010614,0.02069960492865275,-0.010943214410004447,5.540512768964374
116.2907268170426,0.5733412917874582,0.6089566304274372,-19.942102,1.271453,-0.808301,-0.007734,0.016091935703387718,-0.008726646259971648,5.543183384519314
117.29323308270676,0.5733414921512563,0.6089564789328581,-19.936401,1.271414,-0.808054,-0.003749,0.012409290981679682,-0.006649704450098395,5.54487609209436
118.29573934837092,0.5733416916423898,0.6089563277873449,-19.932949,1.266757,-0.810671,-0.004039,0.011135200627723822,-0.005253441048502932,5.547197310186342
119.29824561403508,0.5733418914825892,0.6089561759437,-19.928215,1.266621,-0.807551,-0.005246,0.013805554383275147,-0.003944444109507185,5.551386449456979
120.30075187969925,0.5733420909737227,0.6089560251472527,-19.924948,1.274448,-0.797947,-0.001205,0.01691224045182505,-0.0024260076602721182,5.557319975501814
121.3032581453634,0.5733422923847183,0.6089558753980028,-19.92864,1.284679,-0.787995,0.006804,0.015289084247470327,-0.0019722220547535923,5.563499051919113
122.30576441102757,0.5733424943193127,0.6089557279176809,-19.937946,1.289557,-0.78259,0.009313,0.011658799403322121,-0.0028099800957108708,5.569694621697842
123.30827067669172,0.5733426978247036,0.6089555811354909,-19.944178,1.290801,-0.778508,0.001757,0.011588986233242348,-0.004642575810304917,5.5773219199685675
124.31077694235589,0.5733429011555614,0.6089554352259655,-19.939861,1.293308,-0.770131,-0.009759,0.016493361431346415,-0.005253441048502932,5.586589181964344
125.31328320802004,0.5733431058826827,0.6089552903636375,-19.92753,1.301552,-0.7556,-0.013264,0.016929693744344994,-0.003979350694547071,5.597271120585325
