Time [s],Longitude [rad],Latitude [rad],Altitude [m],V North [m/s],V East [m/s],V Down [m/s],Roll [rad],Pitch [rad],Yaw [rad]
0.0,0.5733548859824691,0.60897516442783,-34.696613,-1.957435,0.330125,-0.5533,-0.2776469948605505,-0.3284185878944805,2.95096784504685
1.0025062656641603,0.5733545985267413,0.6089752290050123,-34.143768,-1.726225,0.577043,-0.511894,-0.053581608036225914,-0.27663468644110123,2.747619516443698
2.0050125313283207,0.5733543543551789,0.6089753380880907,-33.636391,-1.461029,0.856127,-0.567698,0.042638393626221474,-0.31702160533225004,2.525002683085359
3.007518796992481,0.5733541543404466,0.6089755180315364,-33.08667,-1.097709,1.137405,-0.522402,-0.06981317007977318,-0.2963045645643699,2.255035119480291
4.010025062656641,0.5733540094781188,0.6089757536509854,-32.588127,-0.743507,1.357531,-0.500995,0.02633701841259443,-0.30471703410569,2.018263840421203
5.012531328320802,0.5733539243060511,0.608975997473482,-32.095142,-0.378788,1.461159,-0.492914,-0.056775560567375545,-0.30962140930379406,1.7766753304535625
6.015037593984962,0.5733539044092978,0.6089762739336355,-31.627916,-0.025702,1.536186,-0.460851,0.016249015336067207,-0.3081378619863064,1.5513708296734923
7.017543859649122,0.5733539257023147,0.6089765467285976,-31.176598,0.294352,1.52012,-0.454044,-0.010576695267085637,-0.3214722123781281,1.3340598146945082
8.020050125313283,0.5733540028458675,0.608976816381967,-30.732691,0.606082,1.456808,-0.443183,0.011082840750163993,-0.32148964821735554,1.114986191703935
9.022556390977442,0.5733541201319933,0.6089770713745707,-30.301252,0.891983,1.346948,-0.43237,0.03230604445441504,-0.33316591836649007,0.9032078879070655
10.025062656641603,0.5733542777352247,0.6089772980928406,-29.863136,1.132634,1.18117,-0.449063,0.020298179200694055,-0.3360456941789882,0.68870690538367
11.027568922305765,0.5733544718158375,0.6089774946169144,-29.425703,1.34423,0.987804,-0.436091,0.043353978619539144,-0.33723253552363686,0.4770333737017976
12.030075187969924,0.5733546913782575,0.6089776532673433,-28.985897,1.491609,0.761055,-0.448165,0.025865779514555962,-0.3427477410533539,0.267314610782159
13.032581453634084,0.5733549306628979,0.6089777672373435,-28.545311,1.594918,0.517542,-0.43813,0.0404741853537485,-0.33751178820395594,0.059934606513485277
14.035087719298245,0.5733551875753639,0.6089778339089209,-28.102665,1.724697,0.237581,-0.455493,0.0049741883681838385,-0.3337069355280233,6.17398024786852
15.037593984962406,0.5733554629883197,0.6089778531075427,-27.637705,1.844406,0.02754,-0.47906,0.016441001553786583,-0.33166491775648244,6.101671169691931
16.040100250626566,0.5733557621377535,0.6089778342579868,-27.139206,1.958482,-0.092413,-0.523517,0.061924281860758816,-0.3265685388873665,6.095684393651617
17.042606516290725,0.573356085547264,0.6089777801527799,-26.598347,2.072583,-0.1468,-0.562726,0.03902556207459321,-0.320390055882014,6.113696400971709
18.045112781954884,0.5733564267591327,0.6089777244767768,-26.019449,2.17397,-0.153195,-0.598224,0.029897490086662867,-0.317475373484476,6.135146567291891
19.047619047619047,0.5733567838534978,0.6089776759566237,-25.411806,2.265641,-0.144605,-0.622809,0.031276300195738384,-0.3152413694952158,6.147799785489828
20.050125313283207,0.5733571545614308,0.6089776316252605,-24.787458,2.350201,-0.142761,-0.636136,0.02155481626212997,-0.3141418295197519,6.152407594341433
21.052631578947366,0.573357536788537,0.6089775930534841,-24.151867,2.427382,-0.154862,-0.647185,0.014398966328953218,-0.3141243413206469,6.15216363221859
22.05513784461153,0.573357928614954,0.6089775539581089,-23.500498,2.493924,-0.17731,-0.668833,0.008133234314293577,-0.3160442209511332,6.14881232080208
23.05764411027569,0.5733583296916162,0.6089775113720752,-22.822145,2.549886,-0.195362,-0.698082,0.008185594191853406,-0.31707396520980985,6.1467526228452165
24.06015037593985,0.5733587396694575,0.6089774651208499,-22.115744,2.596423,-0.199883,-0.722508,0.00815068760681352,-0.31534610670362795,6.147136665093826
25.062656641604008,0.5733591540106219,0.6089774176478943,-21.392675,2.635472,-0.193086,-0.731217,0.008045967851693859,-0.3125884690321844,6.148428296006764
26.065162907268167,0.573359573762307,0.6089773724438666,-20.66815,2.672792,-0.193177,-0.726588,0.005288347633542819,-0.31063366536336573,6.148515649735827
27.06766917293233,0.5733599970046506,0.6089773254945099,-19.949408,2.687665,-0.209912,-0.720254,-0.008482300164692442,-0.31176818173703963,6.145583496592476
28.07017543859649,0.5733604193743296,0.6089772752290273,-19.234533,2.689358,-0.241121,-0.72057,-0.012007865253720986,-0.3147177707196175,6.138531982441983
29.07268170426065,0.5733608420930744,0.6089772183312937,-18.514189,2.686056,-0.267787,-0.727087,-0.010716321607245184,-0.3153984665811878,6.134518074228247
30.075187969924812,0.5733612625428911,0.6089771565466382,-17.790686,2.681199,-0.268217,-0.726184,-0.005009094953223725,-0.31531118266529556,6.1381309057798745
31.07769423558897,0.5733616800256482,0.6089770965073119,-17.067869,2.674787,-0.261339,-0.725588,0.002670353755551324,-0.3160442209511332,6.141621791176666
32.08020050125313,0.5733620971593395,0.6089770371661174,-16.34218,2.669902,-0.2546,-0.734595,-0.004153883619746504,-0.3189239967636313,6.142564548225423
33.08270676691729,0.5733625134203661,0.6089769818391801,-15.602503,2.666076,-0.240208,-0.75186,-0.0036477381366681488,-0.3194301597000022,6.14568790218833
34.08521303258145,0.5733629275869977,0.6089769317482305,-14.849924,2.658545,-0.214498,-0.758311,0.002234021442552742,-0.3160791449894656,6.147852511886531
35.08771929824561,0.573363339833767,0.6089768837516761,-14.099375,2.647161,-0.202862,-0.74845,-0.0026005405854715507,-0.31281536183494363,6.145129693533665
36.09022556390977,0.5733637508588058,0.6089768394203131,-13.361867,2.639927,-0.206968,-0.735778,-0.0052010811709431014,-0.31103510854461697,6.141464659184109
37.092731829573935,0.5733641608366471,0.6089767950889501,-12.624654,2.632647,-0.205894,-0.750681,-0.0025656340004316645,-0.3120823410023986,6.139178068424487
38.095238095238095,0.5733645706399554,0.608976751281186,-11.860985,2.626284,-0.185979,-0.780685,0.002408554367752175,-0.31182054161459943,6.136577754731818
39.097744360902254,0.5733649783488687,0.6089767107895473,-11.08065,2.625883,-0.154923,-0.778391,-0.003543018381548489,-0.30731757469116155,6.1355481850060665
40.100250626566414,0.5733653878031112,0.6089766776282916,-10.323955,2.62827,-0.132028,-0.737757,0.0025132741228718345,-0.30518827300372847,6.137677102721065
41.10275689223057,0.5733657965592219,0.6089766486558259,-9.61151,2.629464,-0.148107,-0.699344,-0.0010122909661567112,-0.30843456795914537,6.138514948028484
42.10526315789473,0.5733662060134646,0.6089766092113847,-8.9144,2.631753,-0.193785,-0.713859,-0.008848819307611252,-0.3132866181862747,6.131254099087507
43.10776942355889,0.5733666140714436,0.6089765627856266,-8.167028,2.608788,-0.200784,-0.789355,-1.7453292519943296e-05,-0.315328618504523,6.124517372520904
44.11027568922306,0.5733670186387643,0.6089765189778625,-7.358892,2.58861,-0.146494,-0.81487,-0.0012740903539558606,-0.30051079060838365,6.122597754689806
45.11278195488722,0.5733674232060849,0.6089764889581993,-6.58645,2.624595,-0.107565,-0.70659,0.007557275661135447,-0.24204226066657364,6.123208689741174
46.11528822055138,0.5733678314385969,0.608976463825458,-5.969006,2.664699,-0.110573,-0.526173,-0.003961897402027128,-0.17498671080495148,6.124953582660855
47.11779448621554,0.5733682433363004,0.6089764402635132,-5.530395,2.680932,-0.114789,-0.357394,0.008063421144213804,-0.11765264487693775,6.121951668707303
48.1203007518797,0.5733686625643867,0.6089764097202514,-5.221989,2.683599,-0.142685,-0.262085,0.0,-0.08056439827205825,6.1102582594249135
49.122807017543856,0.573369081967006,0.6089763711484748,-4.992134,2.689495,-0.19772,-0.200048,-0.0072954762733362976,-0.05504768460790115,6.098023169755875
50.125313283208015,0.573369501718691,0.6089763248972496,-4.791072,2.673214,-0.223072,-0.194435,-0.002775073510670984,-0.03207915165165578,6.0964700187078185
51.127819548872175,0.5733699207722445,0.6089762779478927,-4.609845,2.688987,-0.172809,-0.139164,0.012060225131280817,-0.0005235987755982988,6.091146886662282
52.130325814536334,0.5733703438400553,0.6089762341401286,-4.517211,2.720675,-0.150218,-0.031412,-0.011711159280881952,0.015498523757709647,6.083240492790871
53.1328320802005,0.5733707683041293,0.6089762032478008,-4.535522,2.70897,-0.136318,0.080415,-0.009302604913129777,0.02150245638457014,6.086905544593719
54.13533834586466,0.5733711934663351,0.6089761720064072,-4.634317,2.685249,-0.212037,0.095449,0.0009599310885968813,0.017400932642383467,6.079435378315551
55.13784461152882,0.573371611123625,0.6089761135378772,-4.671909,2.664697,-0.305677,-0.008785,-0.0032812189937493396,0.012566370614359171,6.056414485481745
56.14035087719298,0.5733720273846517,0.6089760498333596,-4.630018,2.676584,-0.274916,-0.03379,0.0032637657012293962,0.0187448361664191,6.042766307437122
57.14285714285714,0.5733724438202111,0.6089759875251052,-4.6156,2.689845,-0.267077,0.023402,-0.006928957130417489,0.02588323280707591,6.040636848670057
58.1453634085213,0.5733728647936268,0.6089759283584436,-4.662369,2.696743,-0.301034,0.078767,6.981317007977319e-05,0.027558748888990462,6.037669544595571
59.14786967418546,0.5733732862906411,0.6089758634321955,-4.743325,2.682734,-0.330156,0.084823,-0.005532693728822024,0.022863813201125717,6.027319969024047
60.150375939849624,0.5733737032497994,0.6089757868122413,-4.819697,2.647682,-0.388181,0.07357,-0.006161012259539983,0.020996310901491785,6.009936454767599
61.152882205513784,0.5733741099115152,0.6089757060034969,-4.851313,2.539224,-0.36199,-0.012881,-0.14191272147965894,0.047647488579445195,6.005520928839686
62.15538847117794,0.5733744900442261,0.6089756410772487,-4.938022,2.375371,-0.287224,0.274275,0.2214997353706004,0.2187246793132219,5.94111824453451
63.1578947368421,0.5733748343976875,0.6089755604430372,-5.294964,2.129111,-0.543098,0.379086,0.40186206027169435,0.2008350370269875,5.72387672856634
64.16040100250626,0.5733751326744567,0.6089754387935884,-5.619872,1.866725,-0.805736,0.360449,-0.06951646410693414,0.2273989482423412,5.521052522337563
65.16290726817043,0.5733753834782703,0.6089753054504335,-6.027986,1.551319,-0.984553,0.458976,0.07749261878854824,0.253159990548485,5.300198698416541
66.16541353383458,0.5733755777334161,0.6089751059593,-6.432521,1.193001,-1.197357,0.376785,-0.02319542575900464,0.2381152698495864,5.070460572644214
67.16791979949875,0.5733757210249476,0.6089748862223472,-6.792609,0.828259,-1.25225,0.360812,-0.05061454830783556,0.2590941100052657,4.842642588301762
68.1704260651629,0.5733758170180565,0.6089746631692688,-7.126086,0.476268,-1.216672,0.333824,-0.025028021473598686,0.26773350725593015,4.617722653369075
69.17293233082707,0.5733758562879647,0.6089744502391001,-7.475651,0.14391,-1.160007,0.379872,-0.047263516144006444,0.27743753789701864,4.405263391911247
70.17543859649122,0.5733758466886538,0.6089742430685179,-7.869671,-0.132012,-1.123086,0.412614,-0.0068591439603377154,0.27148594769442547,4.208913851061886
71.17794486215539,0.5733757978194348,0.6089740423556539,-8.260056,-0.364214,-1.076122,0.368755,-0.024818581963359364,0.2623055158289353,4.017782774862817
72.18045112781954,0.5733757128219001,0.6089738498458374,-8.586853,-0.598721,-0.930678,0.293312,-0.020891591146372127,0.26619761751417514,3.8235451173149526
73.1829573934837,0.5733755993754988,0.6089736903227437,-8.866894,-0.797776,-0.676076,0.303617,-0.03155555287605748,0.28103289870283443,3.6300928230239013
74.18546365914787,0.5733754578292966,0.6089735768763425,-9.200476,-0.949367,-0.446273,0.376284,-0.0005759586531581288,0.28550095904123246,3.439729813868757
75.18796992481202,0.5733752921975505,0.608973510204765,-9.597894,-1.096253,-0.244185,0.405841,0.005427973973702365,0.2751511565769061,3.2565400206728468
76.19047619047619,0.5733751030038595,0.608973484199359,-10.005942,-1.23931,-0.036525,0.416161,-0.047560222116845484,0.27656487327102147,3.1420813457803516
77.19298245614034,0.5733748953096786,0.6089734798360359,-10.430428,-1.347503,0.078144,0.442192,0.03551745027808461,0.2770360947157674,3.1047661889194202
78.19548872180451,0.573374660737427,0.6089735047942443,-10.872724,-1.470033,0.131137,0.451927,0.04447098934081552,0.2734058273249117,3.099687280796117
79.19799498746866,0.5733744078392184,0.6089735407480269,-11.326205,-1.581162,0.167266,0.468955,0.025953045977155684,0.2715383250252778,3.1064242866154004
80.20050125313283,0.5733741388839808,0.6089735712912887,-11.803288,-1.683761,0.191201,0.498081,0.0216071761396898,0.268850500523914,3.1125852290617697
81.203007518797,0.5733738556170431,0.608973603405347,-12.312898,-1.774557,0.216596,0.534186,0.018517943363659837,0.2659881780039358,3.1092866440419633
82.20551378446115,0.5733735592601361,0.6089736369156687,-12.863678,-1.85017,0.226848,0.573376,0.008360127117052838,0.26216590694206826,3.101467603899614
83.20802005012531,0.5733732534784511,0.6089736671098647,-13.439389,-1.911073,0.221032,0.58412,0.005253441048502932,0.25797711673728185,3.0959175790513194
84.21052631578947,0.5733729407154492,0.6089736948605998,-14.012971,-1.961406,0.206127,0.574066,0.0046251225177849735,0.25610963189094044,3.096126896388511
85.21303258145363,0.5733726209711302,0.6089737192952094,-14.571664,-2.010191,0.205827,0.561815,0.0036302848441482054,0.25603980126756815,3.0997048562616847
86.21553884711778,0.5733722940709614,0.6089737456496811,-15.134065,-2.056742,0.2147,0.583224,-0.0024260076602721182,0.2591988472136779,3.1023051699543536
87.21804511278195,0.5733719661235949,0.6089737833487929,-15.733521,-2.096714,0.207606,0.621311,0.003892084231947355,0.25869271918389203,3.104137957655165
88.22055137844612,0.5733716339874383,0.6089738198261742,-16.365259,-2.120043,0.185662,0.646419,-0.005009094953223725,0.25610963189094044,3.102724083881417
89.22305764411027,0.5733712950444976,0.6089738432135863,-17.00853,-2.127852,0.177287,0.645664,-0.01033234917180643,0.2528458487364185,3.0970518161723133
90.22556390977444,0.5733709557524909,0.6089738608414117,-17.641935,-2.130804,0.179593,0.631005,-0.007592182246175334,0.251781197892702,3.0961615237208706
91.22807017543859,0.573370617333149,0.608973878818303,-18.260681,-2.139174,0.182006,0.617989,-0.0003141592653589793,0.2522873259224878,3.1000012655285505
92.23057644110276,0.5733702769939448,0.6089739016821162,-18.874821,-2.152007,0.192448,0.620806,-0.00942477796076938,0.25329963434193703,3.1002108621184226
93.23308270676691,0.5733699342112798,0.6089739287347196,-19.496088,-2.16214,0.207116,0.629923,-0.0031764992386296795,0.25427701872305386,3.0961615237208706
94.23558897243107,0.5733695895087525,0.6089739584053169,-20.126602,-2.165376,0.223386,0.636682,-0.008325220532012952,0.2539803127502148,3.0917635732585254
95.23809523809523,0.5733692451552911,0.6089739891231117,-20.759567,-2.164926,0.22797,0.634798,-0.006213372137099813,0.2527236756887789,3.0934040780356447
96.2406015037594,0.5733689018490272,0.608974018968242,-21.390854,-2.166607,0.220872,0.632946,-0.006387905062299246,0.25253167201776705,3.0985876535541905
97.24310776942356,0.5733685580191645,0.6089740484643063,-22.023935,-2.17384,0.217548,0.635931,-0.005375614096142535,0.25230477921500777,3.0993557205981155
98.24561403508771,0.5733682108731764,0.6089740786585024,-22.657665,-2.184204,0.222552,0.635391,-0.00471238898038469,0.2524967828860197,3.095550867922183
99.24812030075188,0.5733678621563917,0.6089741086781655,-23.289669,-2.191282,0.225428,0.634118,-0.00947713783832921,0.25345671397461655,3.0941372559478224
100.25062656641603,0.5733675123924097,0.6089741362543676,-23.919716,-2.193345,0.225469,0.63338,-0.006946410422937432,0.2550275103014114,3.0954986651242553
101.2531328320802,0.5733671633265593,0.6089741657504321,-24.55044,-2.195143,0.223809,0.634647,-0.006667157742618339,0.25469588029024,3.0974358409676293
102.25563909774435,0.5733668144352417,0.6089741947228975,-25.183249,-2.199876,0.222612,0.636121,-0.0016929693744344998,0.2532647277568971,3.0979943114216826
103.25814536340852,0.5733664655439243,0.6089742226481657,-25.818403,-2.205157,0.216871,0.638392,0.002373647782712288,0.2527585822738188,3.0988494529419897
104.26065162907267,0.5733661164780739,0.6089742500498349,-26.455545,-2.208821,0.210525,0.639915,0.002897246558310587,0.25274112898129886,3.0989541203372317
105.26315789473684,0.5733657656668942,0.6089742771024382,-27.091757,-2.21205,0.213111,0.639184,-0.00466002910282486,0.2532647277568971,3.0962315637837534
106.265664160401,0.5733654146811816,0.6089743038059758,-27.727278,-2.212424,0.221427,0.638391,-0.008168140899333463,0.2531251014167376,3.093334317225443
107.26817042606515,0.5733650643936008,0.6089743317312438,-28.363594,-2.212343,0.220655,0.641175,-0.002356194490192345,0.254242112138014,3.0938578810944555
108.27067669172932,0.5733647127097566,0.6089743603546436,-29.002424,-2.213159,0.21612,0.641915,-0.000296705972839036,0.25445155164825334,3.0951844011391416
109.27318295739347,0.5733643605023135,0.6089743889780433,-29.640245,-2.214718,0.211664,0.64081,-0.0045553093477052,0.2538232156642428,3.0965631239817544
110.27568922305764,0.5733640086439362,0.6089744162051797,-30.276644,-2.215963,0.209819,0.639808,-0.003543018381548489,0.25352654459798885,3.0970693916378806
111.27819548872179,0.573363657134625,0.6089744420360526,-30.914701,-2.216068,0.213573,0.642822,-6.981317007977319e-05,0.25427701872305386,3.094625948138381
112.28070175438596,0.573363304752649,0.6089744690886559,-31.557615,-2.217311,0.216436,0.646815,-0.004153883619746504,0.2542595654305339,3.091588883253693
113.28320802005013,0.5733629525452059,0.6089744966648581,-32.203381,-2.219747,0.206949,0.648825,-0.0062482787221397,0.2538930462876151,3.092496751170703
114.28571428571428,0.5733626008613617,0.6089745210994677,-32.847614,-2.222202,0.189868,0.628899,-0.004886921905584123,0.22905702848502832,3.094119680482255
115.28822055137844,0.5733622470831223,0.6089745436142151,-33.426949,-2.240843,0.179882,0.522329,-0.013735741213195374,0.17231635704940015,3.0928107359031367
116.2907268170426,0.573361893304883,0.6089745629873698,-33.889526,-2.254837,0.17797,0.397515,3.490658503988659e-05,0.11695451317614002,3.0910128373340724
117.29323308270676,0.5733615381303802,0.6089745814878598,-34.230919,-2.265259,0.179478,0.278627,-0.0004886921905584122,0.07028440897781166,3.088482301904898
118.29573934837092,0.573361178767087,0.6089746031299426,-34.465107,-2.270945,0.185464,0.180584,0.002495820830351891,0.03721041965251911,3.085602613358863
119.29824561403508,0.5733608188801954,0.6089746263428215,-34.617779,-2.27515,0.18999,0.116311,-0.0005061454830783556,0.019285888234537342,3.0836476002505337
120.30075187969925,0.5733604582951719,0.6089746506028981,-34.721138,-2.278521,0.19085,0.078461,-0.01085594794740473,0.011780972450961725,3.0824084339349103
121.3032581453634,0.5733600952666874,0.6089746739903102,-34.795006,-2.283652,0.190783,0.053975,-0.0064053583548191895,0.006771877497737999,3.0824608985322253
122.30576441102757,0.5733597325872689,0.6089746973777221,-34.848194,-2.289929,0.189908,0.036512,-0.006876597252857658,0.0045553093477052,3.0810646002240447
123.30827067669172,0.5733593679879883,0.6089747232085951,-34.887417,-2.295551,0.196837,0.024483,0.0019198621771937625,0.002548180707911721,3.07853378554219
124.31077694235589,0.573359002166977,0.6089747488649352,-34.913338,-2.300934,0.210125,0.013047,-0.00874409955249159,0.0008377580409572782,3.073961145075013
125.31328320802004,0.5733586368695645,0.6089747759175386,-34.932938,-2.303474,0.219211,0.011252,-0.008726646259971648,0.0014660765716752368,3.0717445943782726
126.3157894736842,0.5733582696522899,0.6089748054136028,-34.952084,-2.304619,0.225039,0.009761,-0.0009599310885968813,0.00027925268031909274,3.0699645330741636
