Time [s],Longitude [rad],Latitude [rad],Altitude [m],V North [m/s],V East [m/s],V Down [m/s],Roll [rad],Pitch [rad],Yaw [rad]
0.0,0.5733701750667165,0.6090302882087932,-15.031991,-1.119583,1.715984,0.008585,0.055955255818938204,-0.000890117918517108,2.2648091901842617
1.0025062656641603,0.5733699958214024,0.6090306063823159,-15.031984,-1.15227,1.698177,-0.009174,0.05806710421385134,-0.003246312408709453,2.2829256031002076
2.0050125313283207,0.5733698113401005,0.6090309229850422,-15.020419,-1.178357,1.686206,-0.012103,0.05501277802286127,-0.002897246558310587,2.3008502741445302
3.007518796992481,0.5733696228445412,0.6090312367952417,-15.012469,-1.206567,1.66709,-0.00277,0.0524471440224296,-0.0012740903539558606,2.3198391422469626
4.010025062656641,0.5733694294620602,0.6090315472893156,-15.013378,-1.243052,1.636531,0.001213,0.05461135229490257,-0.0007155849933176752,2.3397710466508337
5.012531328320802,0.5733692296218608,0.6090318506275397,-15.010372,-1.282372,1.600116,-0.010723,0.05473352534254217,-0.001762782544514273,2.3596502072047087
6.015037593984962,0.5733690248947395,0.6090321473335125,-14.995537,-1.314607,1.571775,-0.018332,0.06154030942532006,-0.0003665191429188092,2.3792153830261498
7.017543859649122,0.5733688140589658,0.609032437930833,-14.980003,-1.344962,1.545172,-0.010098,0.06082472443200238,0.0024260076602721182,2.3999150752212657
8.020050125313283,0.573368598859869,0.6090327241648302,-14.97738,-1.374672,1.518887,0.005073,0.05515240436302082,0.004345869837465881,2.4193055435845823
9.022556390977442,0.5733683798210479,0.6090330065591033,-14.987798,-1.405185,1.484622,0.011575,0.05396558047166467,0.0037524578917878084,2.4378933524782
10.025062656641603,0.5733681544990414,0.6090332814484605,-14.998187,-1.434262,1.447912,0.00634,0.0576831317784126,0.001361356816555577,2.4562191001846294
11.027568922305765,0.5733679262099753,0.6090335490074348,-14.999371,-1.45932,1.415277,-0.002673,0.05904448859496817,0.0006108652381980154,2.474318199434396
12.030075187969924,0.5733676947793165,0.6090338104577567,-14.99556,-1.483737,1.386386,-0.002257,0.05852088981936987,0.0015184364492350666,2.4914575072219054
13.032581453634084,0.5733674582872029,0.6090340668466239,-14.993573,-1.512723,1.356116,-0.000192,0.0534943415736262,0.003839724354387525,2.5096263847351663
14.035087719298245,0.5733672167336343,0.6090343178249703,-14.991753,-1.54092,1.324103,-0.005679,0.050858894403114766,0.004468042885105484,2.5271494555186043
15.037593984962406,0.573366972736605,0.6090345632182631,-14.984133,-1.560838,1.297336,-0.011518,0.050335295627516465,0.0037000980142279784,2.543956941308725
16.040100250626566,0.57336672542345,0.6090348032010353,-14.972924,-1.581388,1.271821,-0.010249,0.05099852074327431,0.003735004599267865,2.562824107602416
17.042606516290725,0.5733664739215047,0.6090350374242209,-14.967067,-1.603499,1.241952,-0.000536,0.052569317070069205,0.0044156830075456534,2.5828604001488484
18.045112781954884,0.5733662203251645,0.6090352672840833,-14.973227,-1.622554,1.200651,0.011907,0.05235987755982989,0.0046251225177849735,2.6026000041757342
19.047619047619047,0.5733659635872315,0.6090354880682337,-14.992296,-1.642578,1.146187,0.022765,0.05492551156026155,0.004904375198104067,2.621850933465354
20.050125313283207,0.5733657028350412,0.6090356978568098,-15.010488,-1.667798,1.091555,0.009175,0.05693264020005503,0.003159045946109736,2.640700524293478
21.052631578947366,0.5733654375449949,0.6090358978715422,-15.00728,-1.695607,1.054497,-0.0154,0.05731661263549378,0.0027576202181510408,2.658659822670159
22.05513784461153,0.5733651671934937,0.6090360924757537,-14.98033,-1.715968,1.041699,-0.034942,0.05005604294719737,0.0036477381366681488,2.675328013732678
23.05764411027569,0.5733648945730646,0.609036285334636,-14.947333,-1.728831,1.033674,-0.02656,0.04642575810304917,0.007696902001294993,2.692013239208696
24.06015037593985,0.5733646210799709,0.6090364774953867,-14.937602,-1.738614,1.007702,0.0059,0.04302236606166022,0.010122909661567111,2.7115608395645703
25.062656641604008,0.5733643460160807,0.6090366640710837,-14.960608,-1.753674,0.95248,0.033453,0.04405211032033688,0.00973893722612836,2.732661870221182
26.065162907268167,0.5733640686832625,0.6090368373822785,-14.999724,-1.771834,0.88088,0.035609,0.04738568919164605,0.006544984694978736,2.7524539562986745
27.06766917293233,0.5733637873361871,0.6090369967308391,-15.024611,-1.788041,0.825487,0.009817,0.05562364326105928,0.002356194490192345,2.7705879446801887
28.07017543859649,0.5733635037201836,0.6090371463055562,-15.021322,-1.802437,0.8008,-0.015081,0.05023057587239681,0.0010297442586766543,2.786644938891951
29.07268170426065,0.5733632183588511,0.6090372929132133,-15.000422,-1.817365,0.786964,-0.02405,0.04260348704118158,0.0028099800957108708,2.8029464188253335
30.075187969924812,0.5733629309031232,0.6090374377755411,-14.979829,-1.824085,0.768931,-0.015475,0.042743113381341125,0.005148721293383272,2.819823665425656
31.07769423558897,0.5733626436219283,0.609037580718007,-14.976529,-1.829816,0.731821,0.008107,0.04359832471481836,0.007504915783575617,2.838620791656465
32.08020050125313,0.5733623549444701,0.6090377151083592,-14.996542,-1.844806,0.673671,0.025271,0.046792277245967975,0.006719517620178169,2.8585875851920823
33.08270676691729,0.573362063299952,0.6090378371068741,-15.016864,-1.85942,0.616215,0.009598,0.049794243559398224,0.0030368728984701333,2.8781524992141363
34.08521303258145,0.5733617699101048,0.609037949157012,-15.016158,-1.86305,0.581594,-0.011064,0.046635197613288486,0.001186823891356144,2.8952044532725836
35.08771929824561,0.5733614756475929,0.6090380559711622,-15.002531,-1.863363,0.560804,-0.010813,0.04483750848373433,0.00312413936106985,2.912134164470221
36.09022556390977,0.5733611817341467,0.6090381577238576,-15.000869,-1.86983,0.527148,0.008707,0.04120722363958612,0.005235987755982988,2.9308266233057876
37.092731829573935,0.573360887122569,0.6090382514480384,-15.01688,-1.878103,0.477212,0.020079,0.0400727596257898,0.0043982297150257105,2.9494493038778598
38.095238095238095,0.5733605921619256,0.6090383378418365,-15.036191,-1.881555,0.42549,0.014115,0.041189770347066175,0.001361356816555577,2.9666757035950435
39.097744360902254,0.5733602961540843,0.6090384135891259,-15.043929,-1.883054,0.383332,-0.001551,0.04565781323217166,-0.0020245819323134223,2.982348934810878
40.100250626566414,0.5733599987499799,0.6090384823550984,-15.033247,-1.886315,0.354866,-0.017684,0.046722464075888204,-0.0026354471705114374,2.9980043287617573
41.10275689223057,0.5733597004732107,0.6090385455360173,-15.012148,-1.888921,0.332327,-0.021863,0.03885102914939378,-0.00153588974175501,3.0146197934275727
42.10526315789473,0.5733594030691062,0.6090386052262777,-14.997652,-1.891177,0.304113,-0.006686,0.037803831598197175,0.001186823891356144,3.0319508430867064
43.10776942355889,0.573359104792337,0.6090386602041493,-15.004164,-1.88992,0.26541,0.015699,0.04143411644234538,0.0021991148575128553,3.0494217110722177
44.11027568922306,0.5733588066901008,0.6090387076771049,-15.026598,-1.883802,0.217718,0.025029,0.04056145181634822,0.00017453292519943296,3.0668052253286664
45.11278195488722,0.5733585110313254,0.609038744678085,-15.050299,-1.874183,0.171434,0.020289,0.04323180557189954,-0.00312413936106985,3.0832814127201726
46.11528822055138,0.5733582164197477,0.609038772777886,-15.064054,-1.871407,0.125404,0.00721,0.04604178566761041,-0.006457718232379019,3.0992159022717383
47.11779448621554,0.5733579219827029,0.6090387925001065,-15.05583,-1.873147,0.089806,-0.024691,0.04492477494633404,-0.009546951008408983,3.113894173640888
48.1203007518797,0.5733576268475263,0.6090388069863394,-15.018169,-1.869542,0.074746,-0.04511,0.03960152072775134,-0.007138396640656807,3.1279442137457827
49.122807017543856,0.5733573329340803,0.6090388199017758,-14.979611,-1.863935,0.066485,-0.027327,0.0383797902513553,-0.001308996938995747,3.1431633801034184
50.125313283208015,0.5733570393697002,0.6090388307228172,-14.974154,-1.860945,0.033774,0.013367,0.03501130479500625,0.0021118483949131386,3.162658795114657
51.127819548872175,0.5733567473761163,0.6090388347370744,-15.002182,-1.855649,-0.025528,0.033682,0.03804817769347639,0.00012217304763960306,3.18335846985648
52.130325814536334,0.5733564557315983,0.609038826359494,-15.028143,-1.841298,-0.086529,0.012256,0.04063126498642799,-0.0056374134839416844,3.201265303635847
53.1328320802005,0.5733561670541399,0.6090388073354052,-15.023611,-1.824605,-0.121334,-0.016674,0.03860668305411457,-0.007766715171374766,3.2158562387292267
54.13533834586466,0.573355880122011,0.6090387811554664,-14.999362,-1.817052,-0.139965,-0.024673,0.04206243497306335,-0.005969026041820607,3.230098282505133
55.13784461152882,0.5733555947606783,0.6090387530556655,-14.978013,-1.815826,-0.162537,-0.012707,0.03705334001983962,-0.001762782544514273,3.245143020657324
56.14035087719298,0.5733553100974773,0.609038721290673,-14.971979,-1.809532,-0.198775,0.000959,0.0342259066316088,0.0007504915783575617,3.2609558084001478
57.14285714285714,0.5733550257833422,0.6090386813226333,-14.974561,-1.795758,-0.235262,0.003916,0.035028758087526195,0.001186823891356144,3.2758607107726694
58.1453634085213,0.573354743738135,0.6090386362931386,-14.977333,-1.783619,-0.262262,0.001241,0.035046211380046134,0.0018500490071139892,3.290224735609998
59.14786967418546,0.5733544634382571,0.6090385855040572,-14.976932,-1.774582,-0.283309,-0.000414,0.032480577379614475,0.0018500490071139892,3.3043794431101343
60.150375939849624,0.5733541852327743,0.6090385313988506,-14.974681,-1.765179,-0.30863,-0.00091,0.03605850234620284,0.0015882496193148398,3.320663347577949
61.152882205513784,0.5733539075508904,0.6090384715340571,-14.978398,-1.750597,-0.345642,0.010121,0.036966073557239895,0.0014486232791552935,3.3379421944391554
62.15538847117794,0.5733536335341979,0.6090384053860785,-14.993147,-1.730603,-0.39199,0.018925,0.0359188760060433,0.0005235987755982988,3.354871905636793
63.1578947368421,0.5733533628336308,0.609038329289723,-15.007009,-1.710822,-0.433773,0.005132,0.03832743037379548,-0.0025656340004316645,3.3696023798038697
64.16040100250626,0.5733530947510577,0.6090382458629848,-14.997587,-1.696926,-0.453392,-0.021452,0.037576938795437914,-0.0032114058236695662,3.3822385461350164
65.16290726817043,0.5733528298100773,0.6090381599927855,-14.96892,-1.689795,-0.457378,-0.028982,0.03331833542057175,5.235987755982989e-05,3.395119198187782
66.16541353383458,0.5733525641709651,0.6090380735989877,-14.95074,-1.686303,-0.473004,-0.00202,0.02918190509334519,0.004799655442984407,3.4101290472082257
67.16791979949875,0.5733522992299847,0.6090379838890642,-14.961367,-1.673866,-0.511829,0.019892,0.02806489437206882,0.005026548245743669,3.4270933682849307
68.1704260651629,0.5733520367324652,0.6090378864996918,-14.981762,-1.645251,-0.556817,0.016674,0.03192207201897629,0.0019024088846738192,3.4437091122034267
69.17293233082707,0.5733517794709335,0.6090377812563379,-14.989488,-1.614536,-0.58096,0.000494,0.034348079679248404,0.0,3.457968469645513
70.17543859649122,0.5733515274453894,0.609037671475128,-14.989313,-1.599106,-0.595386,0.002014,0.03270747018237374,0.001117010721276371,3.4711282172989653
71.17794486215539,0.5733512780378393,0.6090375589013912,-14.995277,-1.59326,-0.621127,0.010251,0.03361504139341079,0.001780235837034216,3.486260291726926
72.18045112781954,0.5733510286302892,0.609037440568068,-15.002972,-1.582701,-0.657324,0.002186,0.03469714552964727,-0.000296705972839036,3.5015492363480565
73.1829573934837,0.5733507793972721,0.6090373171732899,-14.994215,-1.562935,-0.673959,-0.019749,0.030106929596902185,-0.0010995574287564276,3.512946498162967
74.18546365914787,0.5733505301642549,0.6090371915095837,-14.978161,-1.557428,-0.685711,0.007937,-0.009564404300928926,0.007347836150896127,3.592341456023019
75.18796992481202,0.5733502990826619,0.609037048392585,-14.985567,-1.346402,-0.863544,-0.00455,0.03652974124424132,-0.013735741213195374,3.8168430006274168
76.19047619047619,0.573350102733121,0.6090368852043,-14.985934,-1.020045,-1.106871,0.001909,0.0973893722612836,-0.008045967851693859,4.081975880031413
77.19298245614034,0.5733499618850504,0.6090366937416811,-14.980705,-0.681271,-1.291888,-0.014281,0.12082914411556743,0.003665191429188092,4.318834757165659
78.19548872180451,0.5733498807272401,0.609036458471298,-14.965029,-0.365922,-1.388212,-0.013056,0.1410051502686219,0.011780972450961725,4.522340479560755
79.19799498746866,0.5733498526274392,0.6090361944029821,-14.955139,-0.078412,-1.439079,0.00639,0.1300793891511374,0.016318828506146982,4.709037651514888
80.20050125313283,0.5733498678118037,0.6090359219570859,-14.963557,0.191938,-1.466097,0.006821,0.10449286231690051,0.009930923443847734,4.892087905637101
81.203007518797,0.5733499226151422,0.6090356495111895,-14.964013,0.460455,-1.43512,-0.003412,0.09728465250616393,0.004991641660703782,5.08405654789091
82.20551378446115,0.5733500170374547,0.6090353884099335,-14.954226,0.725266,-1.336305,-0.007911,0.09922196797587762,0.003735004599267865,5.280650557008598
83.20802005012531,0.5733501486352804,0.6090351501724905,-14.955606,0.97739,-1.196236,0.014732,0.09995500626171526,0.008796459430051421,5.4739108476286376
84.21052631578947,0.5733503177576849,0.6090349384640523,-14.984254,1.190269,-1.048061,0.032606,0.10723302924253161,0.006178465552059927,5.657240179898245
85.21303258145363,0.5733505196922793,0.6090347574734088,-15.012027,1.373296,-0.881032,0.021852,0.08278096642209105,0.0021118483949131386,5.83957456977446
86.21553884711778,0.5733507472832138,0.6090346106912187,-15.015059,1.510894,-0.666219,-0.007705,0.10238101392198737,-0.002949606435870417,6.025050953729992
87.21804511278195,0.5733509937237042,0.6090345056223977,-14.991899,1.611303,-0.403896,-0.022222,0.08468337530676487,0.002617993877991494,6.216496555713563
88.22055137844612,0.5733512546504274,0.6090344513426581,-14.978536,1.721593,-0.117388,-0.004581,0.03897320219703338,0.003926990816987242,0.09491100472345164
89.22305764411027,0.5733515337285747,0.6090344462812032,-14.987113,1.838361,0.091177,0.015199,0.07115707360380881,-0.0013264502315156904,0.17619098798882757
90.22556390977444,0.5733518342742719,0.6090344831076505,-14.997791,1.952078,0.213274,0.004112,0.003420845333908886,-0.009128071987930343,0.20020671849626953
91.22807017543859,0.5733521566365848,0.6090345482084315,-14.994107,2.062801,0.284666,-0.013451,0.004258603374866164,-0.015899949485668342,0.19842648265923532
92.23057644110276,0.5733524896454061,0.609034621861326,-14.970752,2.085237,0.313715,-0.03196,-0.010367255756846317,-0.02069960492865275,0.19017107529730215
93.23308270676691,0.5733528252722212,0.6090346935943582,-14.935671,2.093578,0.326869,-0.038039,-0.017575465567582896,-0.0216071761396898,0.18371335706492312
94.23558897243107,0.5733531567102462,0.6090347634075283,-14.89899,2.093768,0.329395,-0.038043,-0.009128071987930343,-0.019041542139258134,0.18011797880581482
95.23809523809523,0.5733534834358822,0.6090348285083094,-14.863251,2.034029,0.329478,-0.034168,-0.020507618710933373,-0.016406094968746697,0.17617353469630762
96.2406015037594,0.5733537836325134,0.6090348866277735,-14.82804,1.798057,0.262447,-0.035553,-0.07291985614832308,-0.017994344588061536,0.07840018999958528
97.24310776942356,0.5733540571256073,0.6090349201380951,-14.802001,1.727298,0.091317,-0.024042,0.029321531433504737,-0.01478293876439197,6.181222997745152
98.24561403508771,0.5733543091511513,0.6090349450963034,-14.785659,1.728412,-0.160804,-0.014662,0.07909832170038301,-0.018133970928221083,5.971329684447022
99.24812030075188,0.5733545625729587,0.6090349131567782,-14.753945,1.672043,-0.43501,-0.041568,0.02530727415391778,-0.020996310901491785,5.7574922237453565
100.25062656641603,0.573354813551305,0.609034827112046,-14.705444,1.542619,-0.673828,-0.043604,0.003909537524467298,-0.005532693728822024,5.548785612165535
101.2531328320802,0.5733550414913053,0.609034691674496,-14.677965,1.361757,-0.899592,-0.013737,-0.021362830044410593,0.00958185759344887,5.346676188078618
102.25563909774435,0.5733552374917803,0.6090345124291819,-14.684317,1.148641,-1.11454,0.009044,-0.00047123889803846896,0.013473941825396225,5.149977773365076
103.25814536340852,0.5733553978875386,0.6090342946120912,-14.684748,0.92157,-1.279393,-0.007505,-0.0113271868454432,0.010768681484805013,4.95411718650566
104.26065162907267,0.5733555202351193,0.6090340504405288,-14.659601,0.665879,-1.364666,-0.027362,0.005113814708343385,0.013491395117916168,4.75867525177392
105.26315789473684,0.5733556031382586,0.609033795796991,-14.645322,0.385913,-1.392653,-0.002601,0.023596851486963336,0.017872171540421936,4.5598298028277435
106.265664160401,0.5733556413609693,0.6090335404553214,-14.660561,0.10283,-1.392273,0.017499,0.013264502315156905,0.016632987771505958,4.3587156003868985
107.26817042606515,0.5733556364740474,0.6090332922695018,-14.674423,-0.177271,-1.335574,0.00445,0.03220132469929538,0.013264502315156905,4.157793139817679
108.27067669172932,0.573355588128427,0.609033058569915,-14.671499,-0.469699,-1.228497,0.005951,-0.0008726646259971648,0.017941984710501707,3.967709226263221
109.27318295739347,0.5733554902154561,0.6090328418000219,-14.686975,-0.756694,-1.14986,0.037481,-0.01637118838370681,0.02727949620867137,3.8559209051262773
110.27568922305764,0.5733553540797744,0.6090326323605116,-14.737137,-0.944579,-1.158674,0.057821,0.04853760649796231,0.02923426497090502,3.831364157457302
111.27819548872179,0.5733551788487175,0.6090324203030075,-14.788016,-1.065786,-1.227594,0.047839,0.038798669271833945,0.030874874467779687,3.8463566928115664
112.28070175438596,0.5733549910512901,0.6090321960281986,-14.827151,-1.082793,-1.252145,0.035638,0.004642575810304917,0.03275983005993357,3.869796237773047
113.28320802005013,0.5733548083153174,0.6090319598851508,-14.854643,-1.08467,-1.245135,0.025323,0.008028514559173916,0.032724923474893676,3.8827466506360153
114.28571428571428,0.5733546318625299,0.6090317274072945,-14.881861,-1.091996,-1.219991,0.038265,0.0076270888312152205,0.033946653951289714,3.884998090464503
115.28822055137844,0.5733544594239998,0.6090314994672942,-14.938151,-1.090367,-1.218665,0.073147,-0.0012740903539558606,0.032934362985133,3.883025763689994
116.2907268170426,0.5733542897779966,0.6090312697819645,-15.018694,-1.075382,-1.243022,0.076736,-0.0003316125578789226,0.024870941840919196,3.8800238322831486
117.29323308270676,0.5733541225754542,0.6090310366059766,-15.074862,-1.059451,-1.250725,0.032221,-0.0070685834705770355,0.014189526818713898,3.8772664040512157
118.29573934837092,0.5733539579909057,0.6090308023827908,-15.082431,-1.058516,-1.224475,-0.009704,-0.005899212871740834,0.008621926504851989,3.874090044438926
119.29824561403508,0.5733537927082255,0.6090305739191919,-15.064931,-1.066597,-1.189895,-0.017497,-0.0010122909661567112,0.008883725892651137,3.872606409854976
120.30075187969925,0.5733536260292821,0.6090303536586402,-15.059927,-1.067721,-1.169682,0.011148,-0.0022689280275926286,0.01207767842380076,3.872728635262493
121.3032581453634,0.5733534600484701,0.6090301363651484,-15.092065,-1.05718,-1.178645,0.047786,0.0020594885173533086,0.011798425743481668,3.873426662243536
122.30576441102757,0.5733532949403228,0.609029915406465,-15.141959,-1.04271,-1.202871,0.041471,-0.004171336912266448,0.0041887902047863905,3.8741073581051055
123.30827067669172,0.5733531327992355,0.6090296899099257,-15.158047,-1.029047,-1.202035,-0.011853,-0.005567600313861911,-0.0051836278784231585,3.8732170656536637
124.31077694235589,0.5733529727525429,0.609029465286051,-15.122059,-1.022356,-1.170893,-0.051694,-0.004380776422505767,-0.007051130178057092,3.8706865302244893
125.31328320802004,0.5733528132294494,0.609029248167092,-15.072729,-1.028007,-1.136137,-0.036425,-0.0012217304763960308,-0.0014486232791552935,3.868295551322305
