Time [s],DVL X [m/s],DVL Y [m/s],DVL Z [m/s]
0.0,1.1944938275122952,-0.4629054938135206,0.08486745786982919
1.0025062656641603,1.1262535076328233,-0.47073802093554257,0.0030150554638512755
2.0050125313283207,1.0665523200911133,-0.4898369550069351,0.09433857115091934
3.007518796992481,1.0196422146936959,-0.2622194910711497,0.4005556277970911
4.010025062656641,1.0311562237645728,0.10903498797899863,0.40260425131511623
5.012531328320802,0.9991304438860066,0.3710426467034719,0.15127025687964488
6.015037593984962,0.9611589980974641,0.4282128822832664,0.024423464474481644
7.017543859649122,0.9599725499363694,0.4093039969228866,0.04077305505617666
8.020050125313283,0.9729101054559532,0.30353357825876737,0.07426651632542468
9.022556390977442,1.1510330689583406,-0.06089478428144613,0.0010375339319361263
10.025062656641603,1.225607982369772,-0.354314179114842,0.011295081215833058
11.027568922305765,1.3019658781300796,-0.38872597227847805,-0.05664450751063101
12.030075187969924,1.4194774673128905,-0.20980083446366102,-0.03388311265708502
13.032581453634084,1.5555986620664914,-0.06624898990204528,0.016406657791883505
14.035087719298245,1.7012871616398202,0.006343343341814915,0.08081971599660247
15.037593984962406,1.8271697117700139,0.02523909658729676,0.08260711494623885
16.040100250626566,1.932058917772608,0.03314011035026362,0.03931679287925976
17.042606516290725,1.9988412543005574,0.015223242475009405,-0.006000915573489362
18.045112781954884,2.0548473583099027,-0.002217210031175313,-0.009265916656782584
19.047619047619047,2.1439046974009996,0.009649905839021223,0.015143221098098495
20.050125313283207,2.216343262394222,0.01480709150743402,0.03547507149849486
21.052631578947366,2.2777360431773075,0.026469206139134904,0.01587977803202252
22.05513784461153,2.3239165191268354,0.04012965148176043,-0.0057216781947276125
23.05764411027569,2.347021976152431,0.0419290741364788,-0.03139778636454252
24.06015037593985,2.373534993964437,0.01027078550149983,-0.0018307289322472351
25.062656641604008,2.4170363882274417,0.015037037177736053,0.03394578497189607
26.065162907268167,2.468926981951655,0.033094295099703505,0.019516483800731614
27.06766917293233,2.479645942579137,0.038382902623186534,-0.011241685951856867
28.07017543859649,2.485552348822471,0.026869384254372377,-0.015389125410088083
29.07268170426065,2.505913007894883,0.021254222665398465,0.00606601501048964
30.075187969924812,2.5327192407564985,0.026577067836741654,0.030610943876770248
31.07769423558897,2.53977807329521,0.033982432148380204,0.004991990900461185
32.08020050125313,2.54056257769532,0.0246290151865538,-0.015533592696221966
33.08270676691729,2.5631472047919353,0.013996645473171898,-0.004346306913478516
34.08521303258145,2.56870198354215,0.034325607037647345,0.005945342893342873
35.08771929824561,2.569239515918461,0.04094790609277607,-0.02683150257977818
36.09022556390977,2.572504733501703,0.011981715932747628,-0.020772622093487757
37.092731829573935,2.5863361856829057,0.014197933172630777,0.022240227018199013
38.095238095238095,2.6039704205451315,0.047084555310427156,-0.0002561546950825004
39.097744360902254,2.5795165378388245,0.027997403558773584,-0.0166458799397453
40.100250626566414,2.58168321370479,0.027275053042545416,-0.008455305697144932
41.10275689223057,2.588931283188006,0.02737057478629866,-0.01154725691974588
42.10526315789473,2.5824654475254634,0.015070571551563198,-0.045383068475115494
43.10776942355889,2.5891787351720104,0.0070655671260259085,-0.005456290704778908
44.11027568922306,2.603579761069705,0.024497774345786122,0.04067220644764589
45.11278195488722,2.6038135688748207,0.05293925055916617,-0.020735340667623243
46.11528822055138,2.575901318111796,0.017166524722900405,-0.04536065543891885
47.11779448621554,2.5774426405751316,0.024231905655553616,0.0243399657228794
48.1203007518797,2.60490858965404,0.026060051129837686,0.00685504855637022
49.122807017543856,2.5868664412102715,0.012195304594546912,-0.03515518186486358
50.125313283208015,2.576063751048652,0.009833633373033935,-0.014638592959455052
51.127819548872175,2.5916884031409206,0.04328189340013346,0.011036005190371798
52.130325814536334,2.59189898624035,0.0201650266533042,-0.013624112643239107
53.1328320802005,2.3893524828025554,0.3540006872232988,-0.01524590668650471
54.13533834586466,2.2200322410485582,0.5164536680631233,-0.006163005683873477
55.13784461152882,2.1581598643135997,0.5310455533800076,-0.04593264319876956
56.14035087719298,2.1294303007418174,0.45025557067104344,-0.04301509168076722
57.14285714285714,2.0977937026872313,0.31214076592230006,-0.026929355678052228
58.1453634085213,2.0876244591695428,0.19889362998948493,-0.0005800824756948949
59.14786967418546,2.0554321289755584,0.10715454235206041,0.014613269528863345
60.150375939849624,2.0455900301397087,0.020804433330101915,0.012343625635813276
61.152882205513784,2.0473905247165987,-0.06974000226867609,0.004909842589658558
62.15538847117794,2.0547383601973053,-0.13850589569435198,0.007770829852317428
63.1578947368421,2.0386072858385025,-0.18291406516943018,0.010760695719458745
64.16040100250626,2.04359356369907,-0.23362022474029723,0.02392678912908408
65.16290726817043,2.0316336896097558,-0.2620370970849672,0.026951431407849613
66.16541353383458,2.0246621367746265,-0.28675414418277906,0.025873988216056753
67.16791979949875,2.029524693026895,-0.2700195329799472,0.02283410999751319
68.1704260651629,2.0399433659782904,-0.23722662928838345,0.0034296029847676007
69.17293233082707,2.0362670690869216,-0.2379273434020305,-0.020133317481453215
70.17543859649122,2.0161480317758196,-0.25267375293525324,-0.015000490428751118
71.17794486215539,2.0224415041335155,-0.22731769701440935,0.013749661567750595
72.18045112781954,2.0341400011064805,-0.17573616415747578,0.017965275248177138
73.1829573934837,2.0413678181266772,-0.1197674710989904,-0.010588705883139657
74.18546365914787,2.048924937031668,-0.09276129562210773,-0.04639851953760688
75.18796992481202,2.0323642731182723,-0.10524879031487708,-0.05663934538543803
76.19047619047619,2.0427850573131856,-0.12403150781379281,-0.03314849163085994
77.19298245614034,2.0550348730200136,-0.1087943842131927,0.010928181060358352
78.19548872180451,2.0501353946886764,-0.06248236664242118,0.014145553063298271
79.19799498746866,2.048032843684613,-0.013160546722335595,-0.010303779116660255
80.20050125313283,2.0393324285621985,-0.01754554961734366,-0.03386350959704627
81.203007518797,2.052070131861706,-0.05146646499584841,-0.028867441589298718
82.20551378446115,2.0674032228468686,-0.0578490303044796,-0.01355289272484389
83.20802005012531,2.068276660923004,-0.06586308141453175,0.004868369005358799
84.21052631578947,2.0559379338005512,-0.065282963155604,0.0038759851061975488
85.21303258145363,2.0362782242320723,-0.060406989659427306,-0.009382948340639075
86.21553884711778,2.0368640790541463,-0.10538694351429605,0.010983448894545434
87.21804511278195,2.0398170068775894,-0.10685109400869656,0.028393015850655512
88.22055137844612,2.041547719953299,-0.07272410664395727,0.012089120866434912
89.22305764411027,2.061024383238841,-0.071681936537592,-0.01767504767110418
90.22556390977444,2.062055007315254,-0.09989293724350196,-0.031079558635114145
91.22807017543859,2.058259708793488,-0.14345806821464596,-0.016846201069249892
92.23057644110276,2.0519319005041226,-0.15161396547206438,0.021061880551685164
93.23308270676691,2.030485421131352,-0.1120637720468562,0.0386487701442755
94.23558897243107,2.037180493494105,-0.07277272692175193,0.011074941827654084
95.23809523809523,2.045788238098422,-0.07255685249989094,-0.02891134689811843
96.2406015037594,2.0439491034191053,-0.1022768203989479,-0.0330898559277085
97.24310776942356,2.0498595644331865,-0.10805094269988247,-0.01672491830928559
98.24561403508771,2.054160142954403,-0.10079358732937735,-0.002369078263887639
99.24812030075188,2.0496487173555398,-0.08780339930864994,-0.002320992381608477
100.25062656641603,2.0378247459278755,-0.07052675581281377,-0.011464481824679969
101.2531328320802,2.033377836138426,-0.06474461838382935,-0.02475904966560039
102.25563909774435,2.051658830911818,-0.0797291784147095,-0.029971390289174296
103.25814536340852,2.0729335727498674,-0.09906946017176453,-0.0198314633031413
104.26065162907267,2.0460721295828845,-0.09576964803407043,-0.01873067093267187
105.26315789473684,2.024348976951184,-0.09461286694684781,-0.007399771266003572
106.265664160401,2.038136818488825,-0.09375820984124301,0.004864114576777487
107.26817042606515,2.047791495671688,-0.05591951342478251,-0.009399159486271928
108.27067669172932,2.047916169482927,-0.07035325101636061,-0.02993546189391705
109.27318295739347,2.03828070637821,-0.11107205530567157,-0.02182842982253322
110.27568922305764,2.033462334599128,-0.12785817770581653,-0.0003436763176430243
111.27819548872179,2.0448713523708837,-0.11322043824442371,-0.00340592580848194
112.28070175438596,2.039719350898479,-0.10675414196702616,-0.005423706589749025
113.28320802005013,2.0480929018124323,-0.07912906848081759,-0.0012675329921941559
114.28571428571428,2.0465222448388185,-0.07185183207087568,-0.018664121649314584
115.28822055137844,2.0425092651812844,-0.10086853381114337,-0.024884196920930406
116.2907268170426,2.0397621032320425,-0.11250763387183829,-0.020811204409057944
117.29323308270676,2.050633180278634,-0.11024407465201456,-0.00648599332839962
118.29573934837092,2.04098463366203,-0.0879231418870611,0.0028244605106811727
119.29824561403508,2.047712515521958,-0.04579461844147957,-0.0032212670695139873
120.30075187969925,2.0477999256540294,-0.05589809023795959,-0.01759717869718282
121.3032581453634,2.048933058317397,-0.09281253691959826,-0.02795155292045951
122.30576441102757,2.040646078656029,-0.1233967386021248,-0.010597163258629918
123.30827067669172,2.037547562709682,-0.09889841401151371,0.025347195758930675
124.31077694235589,2.0542827734415674,-0.04505856491919896,0.020333486804856016
125.31328320802004,2.048451569342787,-0.04651060823331928,-0.0032251488086995073
126.3157894736842,2.045636346598907,-0.05807139782525131,-0.026820961804089473
127.31829573934836,2.041816701433995,-0.10304545884272555,-0.026938632576484326
128.32080200501252,2.0420941996412045,-0.12050493484167794,-0.002394557902807936
129.32330827067668,2.048383674723618,-0.09801238457543632,0.014049413354412796
130.32581453634086,2.0567630934348546,-0.07182084310097574,0.013078479137590316
131.328320802005,2.0408511832355485,-0.07919298690588797,-0.00944758895093571
132.33082706766916,2.0379275023933943,-0.07919644460706994,-0.02071233818815907
133.33333333333331,2.0388746079475837,-0.09875288654550121,-0.019745047240206086
134.3358395989975,2.0533661390358917,-0.09571601891621254,-0.007475753384454878
135.33834586466165,2.045422631930372,-0.09942503063420695,-0.010541324936439863
136.3408521303258,2.042541051602811,-0.09804278676140754,0.0007419025137146596
137.34335839598998,2.0509832064613107,-0.07621343789422447,0.004881503868908135
138.34586466165413,2.055795508982216,-0.057987222083948596,-0.01352413740447709
139.34837092731829,2.051037229003354,-0.08913752354041346,-0.03716950331017048
140.35087719298244,2.0506829069514656,-0.11744351151063466,-0.022902607540128756
141.35338345864662,2.0470411643377804,-0.11103311015286778,0.0006938446543857653
142.35588972431077,2.032530557708449,-0.10547032613837853,0.022266174854365054
143.35839598997492,2.039969326713099,-0.06404054526740165,0.010067641062212345
144.36090225563908,2.0322142131669616,-0.030673484645003746,-0.03388278384253399
145.36340852130326,2.042180283684311,-0.08192261741780862,-0.0627460315197903
146.3659147869674,2.0509790550861147,-0.14209188407051926,-0.017849061217844558
147.36842105263156,2.06133353717458,-0.1507898700442639,0.026164642121913044
148.37092731829574,2.0424935479183923,-0.09229521408563984,0.018179410183583468
149.3734335839599,2.035353136348224,-0.04519938707711577,-0.009337593014290308
150.37593984962405,2.0406506224356042,-0.07185105680135301,-0.043242552106791496
151.3784461152882,2.0417868229883425,-0.10446769670896593,-0.03616464800733624
152.38095238095238,2.058753311976966,-0.12391672367425095,-0.005520064285207896
153.38345864661653,2.043455116518829,-0.11184046822426698,0.015047667141261574
154.38596491228068,2.0364663245837478,-0.07493818859441034,0.004921563526937757
155.38847117794487,2.047928780971181,-0.07037068436835386,-0.02378649888958841
156.39097744360902,2.0569387205081653,-0.09777309239030021,-0.033109728112268186
157.39348370927317,2.040516672776896,-0.11039736415603953,0.004811055591351102
158.39598997493732,2.046166957346022,-0.09586663391842429,0.01508605851347023
159.3984962406015,2.0416264345117856,-0.0856875076931916,-0.015615956903804162
160.40100250626566,2.041700656675776,-0.095787498956576,-0.031016832903237826
161.4035087719298,2.0464326303315823,-0.12475594321825671,-0.01778859041307133
162.406015037594,2.052855793442616,-0.11098919959401571,0.009902434678706508
163.40852130325814,2.048991186093839,-0.08859471020260766,0.018173566157403537
164.4110275689223,2.0342137342280533,-0.06700289118519565,0.008024695930935216
165.41353383458645,2.0384614976445024,-0.06254586668660495,-0.012468504736038118
166.41604010025063,2.0400947814156623,-0.08276032168993246,-0.03199994536496523
167.41854636591478,2.0511702471813678,-0.09642610048977773,-0.021819351577450907
168.42105263157893,2.060837231566982,-0.11304768053410713,0.0027035175597086005
169.4235588972431,2.049104328229311,-0.09872718023805443,0.014045581196438452
170.42606516290726,2.0287264714047324,-0.09314739582296415,0.004889471863425649
171.42857142857142,2.031535745749344,-0.08729015499875421,-0.00432307401618396
172.43107769423557,2.049448566836431,-0.07184319040564191,-0.009448379037462297
173.43358395989975,2.063954683582196,-0.07454256746393029,-0.01871550747379204
174.4360902255639,2.0548870680770714,-0.10292422334049174,-0.014674020525197777
175.43859649122805,2.048582219492038,-0.1182608820409393,0.0006695229451284649
176.44110275689223,2.0404481650330153,-0.10315560997649768,0.0058567267117887924
177.4436090225564,2.045289723860705,-0.08495764021885445,-0.002301994622950282
178.44611528822054,2.0458018894343564,-0.07399099566794255,-0.03403947599307672
179.4486215538847,2.0411081914665137,-0.10521085565966608,-0.03309102489583165
180.45112781954887,2.041309741253558,-0.11687620894249935,-0.007506356743400324
181.45363408521303,2.052791083937804,-0.10374517593194173,0.009923095349036975
182.45614035087718,2.0464584691628303,-0.06317571474584101,-0.012490366971212788
183.45864661654133,2.0363405816761193,-0.06905230378648952,-0.02682869295626356
184.4611528822055,2.0438229895820323,-0.08638383286329965,-0.016648450042206213
185.46365914786966,2.052486172776638,-0.08196481697868918,-0.005385617825207188
186.46616541353382,2.0653198168659346,-0.06441878321708269,-0.005368192963340498
187.468671679198,2.0617161311518624,-0.07091952235455123,-0.027921700560625144
188.47117794486215,2.04691317632889,-0.10516412931769568,-0.02490741002240619
189.4736842105263,2.0429524135024035,-0.12996600625884877,0.016022647466292943
190.47619047619045,2.044113275621913,-0.0996018737560944,0.04582286569527008
191.47869674185463,2.041834628015938,-0.03721818344890592,0.014237885123096474
192.4812030075188,2.0453387770834737,-0.039186649041142954,-0.043161894358402134
193.48370927318294,2.059192720528935,-0.10857476766055792,-0.04749205561035672
194.48621553884712,2.0468347726513687,-0.15667714871477564,-0.002508816618814602
195.48872180451127,2.045353365539673,-0.1466533096872543,0.03338952391552984
196.49122807017542,2.0344701383517863,-0.08876928007168895,0.019234541102357845
197.49373433583958,2.0231569615378984,-0.05908947501665856,-0.017544332076045853
198.49624060150376,2.052037809278577,-0.055766843006907485,-0.04527564640312948
199.4987468671679,2.060447923971673,-0.09119658583771592,-0.03719895953339407
200.50125313283206,2.069577330675357,-0.12303821819977268,-0.013742815609928212
201.50375939849624,2.0454794320157657,-0.09952479530282703,0.025324506794626882
202.5062656641604,2.047728275975703,-0.048729028726117216,0.010091485271362428
203.50877192982455,2.0445021047374077,-0.03267316035778688,-0.04314136250216967
204.5112781954887,2.062395927643511,-0.0773405085369395,-0.0597088040803786
205.51378446115288,2.0651001797159774,-0.11293523165917156,-0.017802014945678842
206.51629072681703,2.059169389436926,-0.09571114537163693,0.016077857400973748
207.51879699248119,2.0575527321337046,-0.08410668175680493,0.005867680204863218
208.52130325814534,2.0400258814225816,-0.07843488252270656,-0.023789474136005174
209.52380952380952,2.044275985822001,-0.0754121393925495,-0.04940977588214239
210.52631578947367,2.042776564001865,-0.12409183547380796,-0.010604479688947295
211.52882205513782,2.046197722744597,-0.09737686285091446,0.03762486913119628
212.531328320802,2.0470328121165964,-0.05378046673664523,-0.0001681356790659424
213.53383458646616,2.0550223640718763,-0.06728319832004051,-0.0596608305864297
214.5363408521303,2.048609455324386,-0.1340620902369242,-0.0475376022725878
215.53884711779446,2.0525964245763992,-0.1508600631675765,0.014914301266092115
216.54135338345864,2.054395327572125,-0.1153989993844262,0.03857829603407945
217.5438596491228,2.0444349320890294,-0.0755750481573427,0.007974774676510157
218.54636591478695,2.0437667352002182,-0.08779910966334864,-0.027924394216587795
219.54887218045113,2.035861980288628,-0.09296389394848557,-0.028944167757961697
220.55137844611528,2.0584461272857624,-0.10069399899868693,-0.01877567567089845
221.55388471177943,2.06804073948682,-0.11721458640249095,-0.03011859568933208
222.55639097744358,2.0516841344399483,-0.13848120704974792,-0.010667563285207475
223.55889724310777,2.036186633044703,-0.10759228664157576,0.019176968199169635
224.56140350877192,2.057549400550609,-0.07831815992040757,0.00793408283990423
225.56390977443607,2.0630770154767575,-0.06076496592276582,-0.02584736897480286
226.56641604010025,2.0447022218603315,-0.10154287257250072,-0.03411467747390019
227.5689223057644,2.037098880043327,-0.1270508199609373,-0.015722632937129895
228.57142857142856,2.0451980328069483,-0.12923390476036956,0.021143117106372605
229.5739348370927,2.0499434423411995,-0.10093549896680601,0.02838532808749183
230.5764411027569,2.0581679546298552,-0.06741460870164391,-0.00228469021124275
231.57894736842104,2.056176782960061,-0.09123505764972496,-0.0433383877949352
232.5814536340852,2.0473832211408167,-0.14136369322687944,-0.03628410372750765
233.58395989974937,2.054780381862213,-0.1428610652093686,0.010833422655016859
234.58646616541353,2.04235775909288,-0.12788188992809046,0.0426752286406014
235.58897243107768,2.0595856399380477,-0.05732900247846182,0.024385479650943072
236.59147869674183,2.0505770992024894,-0.04421679329373985,-0.03704223716412238
237.593984962406,2.0637261944536736,-0.11719415842632093,-0.05777790229406714
238.59649122807016,2.05923474501049,-0.1586516292067381,-0.024065693416715505
239.59899749373432,2.0382279981852425,-0.15104846672423777,0.016999861176941654
240.6015037593985,2.038525789374237,-0.11410083295629327,0.022227699674599775
241.60401002506265,2.0418307442260355,-0.09010863741401973,0.0089651957447653
242.6065162907268,2.0546415425160673,-0.07539187633997213,-0.015620503933330162
243.60902255639095,2.068500476216211,-0.0860458923832541,-0.03310657498558535
244.61152882205513,2.0578791435269514,-0.10719184148029239,-0.03211573408536915
245.6140350877193,2.0439196718749915,-0.14942296901485883,-0.020927102026117764
246.61654135338344,2.0388979895762547,-0.1459651019015306,0.015988555775377777
247.6190476190476,2.0456678259671146,-0.10530261742314559,0.016086618439323144
248.62155388471177,2.073392336945234,-0.06790299896272795,-0.02179543914786905
