Time [s],Longitude [rad],Latitude [rad],Altitude [m],V North [m/s],V East [m/s],V Down [m/s],Roll [rad],Pitch [rad],Yaw [rad]
0.0,0.6097300519669746,0.5734839021170399,-6.111891,-1.13986,-0.099866,0.526628,-0.02118829711921115,-0.340409017308974,-2.8634220075937664
1.0025062656641603,0.6097300186311859,0.5734837286313121,-6.58656,-1.060675,-0.288946,0.439063,0.06462954220135003,-0.34463271409880036,-2.705015854869592
2.0050125313283207,0.6097299551012011,0.5734835708535478,-6.999248,-0.958091,-0.421653,0.4085,-0.05005604294719737,-0.35473818792114,-2.5399078647105604
3.007518796992481,0.609729866613008,0.5734834317508064,-7.409154,-0.82556,-0.529422,0.429158,-0.018727382873899166,-0.3293087232662899,-2.3817461977080043
4.010025062656641,0.6097297578789956,0.573483313766549,-7.835239,-0.702043,-0.653715,0.40326,-0.07785913793146707,-0.20970130962711853,-2.306435188124572
5.012531328320802,0.6097296275029005,0.5734832071269317,-8.175602,-0.679313,-0.744877,0.253539,-0.10573204608581645,-0.09707521299592448,-2.3683070752011854
6.015037593984962,0.60972949084362,0.5734831032798413,-8.368189,-0.719222,-0.695153,0.136613,-0.000890117918517114,-0.07044148861049115,-2.513675461333331
7.017543859649122,0.6097293665761773,0.5734829907061045,-8.47162,-0.789528,-0.576377,0.079769,0.06270968002415626,-0.060423298704043615,-2.6671947096052144
8.020050125313283,0.6097292711066673,0.5734828622498714,-8.538614,-0.888788,-0.425847,0.065811,-0.015673056682909078,-0.04300491276914031,-2.8147098681706053
9.022556390977442,0.6097292065294849,0.5734827170384778,-8.614151,-1.032624,-0.289299,0.086906,-0.07531095722355534,-0.03340560188317143,-2.925241447526359
10.025062656641603,0.609729159580128,0.5734825416328879,-8.711001,-1.169316,-0.253527,0.098983,0.01977458042509575,-0.05016076270231706,-2.9078230441381625
11.027568922305765,0.6097291087910468,0.5734823540099933,-8.80182,-1.202333,-0.354016,0.076557,0.08724900930719652,-0.0664097780383841,-2.7672893596603823
12.030075187969924,0.6097290332182901,0.5734821594057817,-8.867803,-1.229193,-0.562395,0.076129,0.03427826650916863,-0.08646361114379908,-2.6193901762996754
13.032581453634084,0.6097289197718888,0.5734819599146482,-8.96297,-1.281389,-0.730324,0.118225,0.0578925712886519,-0.0941430598525741,-2.5568202622420184
14.035087719298245,0.6097287710698365,0.5734817506496709,-9.103214,-1.371467,-0.853801,0.164144,0.0341037335839692,-0.08920377806943014,-2.5519682469214735
15.037593984962406,0.6097285977586419,0.5734815265493949,-9.275985,-1.478646,-0.947773,0.172444,0.023719024534602937,-0.06995279641993268,-2.5647263943140426
16.040100250626566,0.6097284096121484,0.5734812860430241,-9.431458,-1.574626,-1.023871,0.130731,0.027680921936630073,-0.049445177708999255,-2.571428511001578
17.042606516290725,0.6097282106446137,0.5734810315740191,-9.533189,-1.644406,-1.079527,0.074851,0.02153736296961002,-0.037000980142279705,-2.5711667116137793
18.045112781954884,0.6097280059174924,0.5734807662839728,-9.594903,-1.709965,-1.105843,0.056149,0.02129301687433082,-0.03387684078120978,-2.5707653731522826
19.047619047619047,0.6097277973506469,0.573480490696484,-9.655323,-1.778898,-1.127202,0.071841,0.009407324668249437,-0.03452261260444778,-2.5715158647306406
20.050125313283207,0.6097275840714123,0.5734802044624866,-9.738612,-1.842659,-1.169741,0.090711,0.015411257295109929,-0.03155555287605738,-2.5730168129807707
21.052631578947366,0.6097273620655314,0.5734799095018429,-9.823184,-1.892008,-1.22365,0.073387,0.011763519158441784,-0.02371902453460284,-2.5731739449733277
22.05513784461153,0.6097271287150104,0.573479608258014,-9.883005,-1.929875,-1.272012,0.044327,0.00874409955249159,-0.017994344588061484,-2.5713587327380836
23.05764411027569,0.6097268880341065,0.5734793017781975,-9.913194,-1.957867,-1.296763,0.018614,0.006387905062299247,-0.015830136315588605,-2.5697006524953965
24.06015037593985,0.609726646655071,0.5734789912841235,-9.932266,-1.988593,-1.287402,0.025218,0.006021385919380438,-0.018779742751458883,-2.571672717470517
25.062656641604008,0.6097264073704305,0.5734786753795289,-9.974678,-2.028331,-1.289765,0.054991,0.0033510321638291116,-0.01862266311877936,-2.57327861236857
26.065162907268167,0.6097261647696645,0.5734783537153477,-10.030821,-2.062031,-1.325649,0.047735,0.009546951008408982,-0.01096066770252424,-2.5742386656302143
27.06766917293233,0.609725916234779,0.5734780282114423,-10.059255,-2.078476,-1.357164,0.014326,0.002757620218151041,-0.004852015320544245,-2.573802176237583
28.07017543859649,0.6097256626384387,0.5734777000895428,-10.059829,-2.094964,-1.365241,-0.006223,0.002635447170511437,-0.003979350694546913,-2.573941732764572
29.07268170426065,0.6097254086930325,0.5734773690005838,-10.053238,-2.113537,-1.356245,0.004618,-0.000122173047639603,-0.004747295565424414,-2.5735752834348236
30.075187969924812,0.6097251550966922,0.5734770356426967,-10.071733,-2.134174,-1.371596,0.027844,0.004223696789826278,-0.004782202150464432,-2.573208554852395
31.07769423558897,0.609724899056891,0.5734766998413486,-10.096665,-2.14522,-1.394413,0.013292,0.0036826447217080346,0.0008552113334772127,-2.5738197517031507
32.08020050125313,0.6097246393518982,0.5734763631673359,-10.094581,-2.151195,-1.39771,-0.014773,-0.00010471975511966002,0.0037873644768278147,-2.5738892681672576
33.08270676691729,0.6097243805195701,0.5734760254461256,-10.072702,-2.154801,-1.38696,-0.016685,-0.002164208272472969,0.002460914245312029,-2.574430424955131
34.08521303258145,0.609724122036308,0.5734756872013165,-10.065295,-2.161566,-1.403173,0.006158,0.0017976891295541594,-0.00029670597283892874,-2.572929459251708
35.08771929824561,0.6097238605859859,0.5734753484329087,-10.060824,-2.169015,-1.419803,-0.018692,0.005166174585903215,0.0034557519189488684,-2.572231449723958
36.09022556390977,0.6097235991356641,0.5734750065229084,-10.033229,-2.176872,-1.400126,-0.027207,-0.005078908123303499,0.0008726646259973325,-2.5737497116402683
37.092731829573935,0.6097233394306714,0.5734746644383749,-10.024377,-2.185882,-1.395391,0.010251,-0.0014835298641951804,-0.004136430327226437,-2.5742035146990787
38.095238095238095,0.6097230786784811,0.5734743216557099,-10.038789,-2.192397,-1.421496,0.00922,0.0004014257279586958,-0.00026179938779913314,-2.573557969768644
39.097744360902254,0.6097228158318957,0.5734739774767813,-10.031045,-2.189756,-1.419224,-0.016439,-0.00015707963267948984,0.0029670597283903977,-2.573662637163886
40.100250626566414,0.6097225531598434,0.5734736348686492,-10.015676,-2.18045,-1.410961,-0.008058,0.0017627825445142731,-0.00027925268031903094,-2.573331076965885
41.10275689223057,0.6097222887424617,0.5734732945294451,-10.013307,-2.175904,-1.427453,-0.002446,-0.00481710873550435,-0.0026878070480711447,-2.5716032010064103
42.10526315789473,0.6097220238014812,0.573472954015708,-9.99754,-2.182926,-1.430473,-0.029595,0.001396263401595464,-0.0007504915783576038,-2.5698228779029133
43.10776942355889,0.6097217616530276,0.5734726112330429,-9.966201,-2.195793,-1.394958,-0.015112,0.0014311699866353502,-0.0054628805587422224,-2.5735228188375086
44.11027568922306,0.6097215036933642,0.5734722663559827,-9.98135,-2.197607,-1.403249,0.043309,-0.004276056667386108,-0.008970992355250784,-2.5738021762375833
45.11278195488722,0.6097212406722459,0.573471922700653,-10.016181,-2.189885,-1.447248,0.008502,0.004084070449666731,-0.0005410520681181641,-2.570189344685955
46.11528822055138,0.6097209732878045,0.5734715806161195,-9.997239,-2.177734,-1.432657,-0.035253,-0.0012391837689159741,0.00024434609527923534,-2.568042554799417
47.11779448621554,0.6097207095685545,0.5734712395787838,-9.977131,-2.176719,-1.408651,0.008855,-0.003316125578789226,-0.007504915783575594,-2.568164535860839
48.1203007518797,0.6097204458493045,0.5734708981923821,-10.001057,-2.191962,-1.428991,0.026563,0.004276056667386107,-0.004258603374866166,-2.5686883789825323
49.122807017543856,0.609720180908324,0.5734705548861182,-10.005371,-2.192588,-1.438148,-0.015482,-0.002809980095710871,0.0006283185307180972,-2.568566136121723
50.125313283208015,0.6097199154437449,0.5734702131506506,-9.988756,-2.1796,-1.427334,-0.011457,0.002146754979953025,-0.004223696789826148,-2.566628698478961
51.127819548872175,0.6097196503282314,0.5734698729859794,-9.991993,-2.169494,-1.436483,0.017984,0.00036651914291880905,-0.006876597252857497,-2.563661935456544
52.130325814536334,0.6097193841655205,0.5734695338685057,-10.003816,-2.174426,-1.450576,0.001885,-0.0030543261909900758,-0.0022340214425526916,-2.5620035759611763
53.1328320802005,0.6097191185264084,0.5734691947510321,-9.990672,-2.155877,-1.421441,-0.015829,0.01026253600172666,-0.00031415926535882654,-2.5626842892760386
54.13533834586466,0.6097188701660559,0.5734688744831143,-9.978151,-1.976983,-1.19853,-0.009461,-0.011868238913561441,-0.0008028514559172972,-2.669638170558007
55.13784461152882,0.6097186823686283,0.5734685561350588,-9.996627,-2.071893,-0.866567,0.041789,-0.0029146998508305304,-0.020525072003453326,-2.8476268127698035
56.14035087719298,0.6097185333175102,0.5734682529713676,-10.031375,-2.112096,-0.534916,0.032409,0.005619960191421742,-0.02832669375986785,-3.003955953870936
57.14285714285714,0.6097184706601899,0.5734679267693304,-10.066241,-2.134154,-0.188865,0.046829,-0.0012217304763960308,-0.03644247478164164,-3.137630668921304
58.1453634085213,0.609718466122334,0.5734675982983652,-10.121523,-2.113715,0.100492,0.070276,0.0006283185307179581,-0.03949680097263153,3.04320828657524
59.14786967418546,0.6097185130716908,0.5734672719217951,-10.203298,-2.069252,0.303355,0.091856,-0.005759586531581287,-0.04115486376202626,2.9712834949933566
60.150375939849624,0.6097185921351059,0.5734669535737396,-10.29411,-2.018594,0.435639,0.087558,0.012985249634837812,-0.04064871827894789,2.9251367801311163
61.152882205513784,0.6097186895244782,0.573466642207001,-10.374321,-1.987793,0.518216,0.074777,0.0056025068989017995,-0.03830997708127537,2.9035995218812616
62.15538847117794,0.6097187961640955,0.5734663345054538,-10.441871,-1.982561,0.560296,0.062439,0.006265732014659643,-0.03403392041388931,2.9024301338291325
63.1578947368421,0.60971890681797,0.573466026105775,-10.493917,-1.984725,0.56588,0.045262,0.0031066860685499066,-0.02675589743307305,2.915834087951524
64.16040100250626,0.6097190174718448,0.5734657163098329,-10.535041,-1.98758,0.548024,0.040699,0.008063421144213804,-0.019617500792416198,2.9401642046171275
65.16290726817043,0.6097191235878632,0.573465405466693,-10.572384,-1.990228,0.510042,0.033006,0.010768681484805013,-0.01204277183876079,2.9742329443495947
66.16541353383458,0.6097192188828403,0.5734650956707509,-10.60128,-1.994291,0.448112,0.024469,0.007766715171374767,-0.005899212871740778,3.0154054184837733
67.16791979949875,0.6097192995170517,0.5734647834313477,-10.622087,-2.012431,0.356871,0.016164,0.009983283321407561,-0.0012566370614357503,3.0603475943627494
68.1704260651629,0.6097193592073122,0.5734644671776872,-10.62983,-2.038917,0.253017,-0.005432,0.016004669240788007,0.003961897402027237,3.1027938621449116
69.17293233082707,0.609719401618813,0.5734641469097694,-10.606639,-2.04969,0.171594,-0.040376,0.008133234314293575,0.009651670763528797,3.1392711736984227
70.17543859649122,0.6097194304167457,0.57346382594372,-10.556034,-2.046657,0.124163,-0.055186,0.010506882097005864,0.013823007675795251,-3.1122712443293366
71.17794486215539,0.6097194503134992,0.5734635056758023,-10.510887,-2.045121,0.074197,-0.032114,0.01450368608407288,0.013962634015954656,-3.08343826546005
72.18045112781954,0.60971945991281,0.5734631852333516,-10.497552,-2.051243,-0.010581,-0.002907,0.01497492498211135,0.011100294042684089,-3.056560317152385
73.1829573934837,0.60971945275696,0.5734628651399668,-10.492826,-2.056793,-0.089374,-0.015811,0.015027284859671176,0.00989601685880781,-3.03867053523981
74.18546365914787,0.6097194311148775,0.5734625439993843,-10.463043,-2.05493,-0.131403,-0.044886,0.011030480872604161,0.009093165402890513,-3.029856797050164
75.18796992481202,0.6097194042368069,0.5734622228588021,-10.40535,-2.052399,-0.135672,-0.066295,0.007365289443416071,0.007051130178057141,-3.0274655563485915
76.19047619047619,0.6097193791040656,0.5734619018927526,-10.343021,-2.054938,-0.114596,-0.052801,0.005672320068981572,0.0031764992386298374,-3.0283382733344664
77.19298245614034,0.6097193588582464,0.5734615800540386,-10.314893,-2.06398,-0.104017,-0.004839,0.00413643032722656,-0.0016231562043547143,-3.031165741629282
78.19548872180451,0.6097193391360258,0.5734612582153245,-10.332035,-2.068702,-0.129971,0.028197,0.009494591130849151,-0.005148721293383174,-3.033818519919266
79.19799498746866,0.6097193152250151,0.5734609358530116,-10.360285,-2.056461,-0.155176,0.022402,0.006963863715457375,-0.006614797865058364,-3.041253535266299
80.20050125313283,0.6097192881724116,0.5734606145378964,-10.370508,-2.045865,-0.139113,-0.002285,0.007016223593017204,-0.008237954069413078,-3.0547975695144554
81.203007518797,0.6097192658321973,0.5734602953171762,-10.361099,-2.054062,-0.094702,-0.013289,0.002234021442552742,-0.010471975511965992,-3.0700516250038388
82.20551378446115,0.6097192522186291,0.5734599722567316,-10.347446,-2.071837,-0.05255,-0.011478,0.0008901179185171077,-0.009878563566287912,-3.0824608985322257
83.20802005012531,0.6097192468081084,0.5734596465782933,-10.343059,-2.082308,-0.023095,0.001384,0.00015707963267948965,-0.007906341511534354,-3.0926884930423277
84.21052631578947,0.6097192489025035,0.5734593196781244,-10.355122,-2.079194,-0.014526,0.015377,0.0015009831567151235,-0.0060737457969402,-3.1005248468508566
85.21303258145363,0.6097192499497011,0.5734589945232847,-10.369821,-2.065367,-0.001416,0.006772,0.002879793265790644,-0.004886921905584041,-3.1079776994628454
86.21553884711778,0.6097192553602218,0.5734586723355047,-10.376056,-2.051493,0.034526,0.00616,-0.0005759586531581289,-0.005009094953223769,-3.1137895236989386
87.21804511278195,0.6097192658321973,0.5734583527657187,-10.393556,-2.052344,0.043935,0.025243,0.012217304763960305,-0.0048171087355042275,-3.1140513056334456
88.22055137844612,0.609719273511646,0.5734580335449986,-10.420544,-2.058077,0.016951,0.021816,0.011449359893082803,-0.00293215314335038,-3.111538083870451
89.22305764411027,0.6097192782240349,0.5734577113572186,-10.429992,-2.064965,-0.003289,-0.009189,0.003525565089028546,3.4906585040017646e-05,-3.1104035674967774
90.22556390977444,0.6097192811910946,0.573457388122241,-10.401209,-2.070057,0.013012,-0.046802,0.001500983156715123,0.004433136300065588,-3.1104208811629572
91.22807017543859,0.6097192874742801,0.5734570647127307,-10.350019,-2.072406,0.043243,-0.05186,-0.0021642082724729686,0.007871434926494558,-3.108658412777708
92.23057644110276,0.6097193009133153,0.5734567407796215,-10.312311,-2.064526,0.060467,-0.022641,0.0024609142453120045,0.00951204442336917,-3.1044346287214193
93.23308270676691,0.6097193145268833,0.5734564182427758,-10.311448,-2.054278,0.030699,0.012978,0.0032812189937493396,0.00921533845053002,-3.0961268963885114
94.23558897243107,0.609719320111937,0.5734560969276605,-10.326758,-2.053088,-0.028775,0.002088,0.014102260356114183,0.010157816246607165,-3.087626898585204
95.23809523809523,0.6097193150504822,0.5734557749144136,-10.307899,-2.055929,-0.049836,-0.042646,0.004031710572106902,0.012566370614359279,-3.0852185885635466
96.2406015037594,0.6097193051021055,0.5734554548210287,-10.250449,-2.060253,-0.031913,-0.0664,-0.003874630939427411,0.014294246573833602,-3.0859863763547914
97.24310776942356,0.6097193002151835,0.5734551335059134,-10.187023,-2.063565,-0.011726,-0.057783,0.0016755160819145562,0.014276793281313704,-3.0861610838129163
98.24561403508771,0.6097193007387823,0.5734548104454689,-10.141159,-2.067606,-0.010729,-0.038254,0.0037699111843077513,0.01305506280491775,-3.085864412746662
99.24812030075188,0.6097193026586444,0.5734544875595573,-10.112738,-2.066772,-0.022325,-0.026856,0.005445427266222309,0.012322024519080044,-3.085934191010157
100.25062656641603,0.6097193003897164,0.5734541651972445,-10.089897,-2.057285,-0.03601,-0.025784,0.006003932626860495,0.010908307824964547,-3.08645775487917
101.2531328320802,0.6097192941065311,0.5734538444057279,-10.066199,-2.049838,-0.045859,-0.025998,0.002286381320112572,0.007627088831215323,-3.08727800726773
102.25563909774435,0.6097192879978787,0.5734535246614089,-10.039699,-2.056801,-0.034254,-0.030676,0.00450294947014537,0.003944444109507339,-3.0903496994847774
103.25814536340852,0.6097192845072201,0.5734532021245631,-10.012118,-2.07043,-0.010977,-0.028413,-0.000698131700797732,0.0016057029118348165,-3.0930549423720763
104.26065162907267,0.6097192853798848,0.5734528790641186,-9.987198,-2.069031,-0.000968,-0.024441,0.000174532925199433,0.001378810109075479,-3.09485284094114
105.26315789473684,0.6097192899177409,0.573452555829141,-9.96843,-2.051644,0.003722,-0.014174,0.004468042885105484,-3.49065850397956e-05,-3.0965804376479342
106.265664160401,0.6097192951537286,0.5734522331177625,-9.968588,-2.046835,-0.003803,0.009812,0.00614355896702004,-0.0040840704496667435,-3.0963538066445633
107.26817042606515,0.6097192948046628,0.5734519133734435,-9.985184,-2.059772,-0.030851,0.011842,0.0057421332390613445,-0.005305800926062698,-3.0937705448186863
108.27067669172932,0.6097192911394713,0.5734515925819269,-9.983006,-2.064444,-0.031616,-0.017955,0.0005585053606381855,-0.003926990816987219,-3.0944339270140766
109.27318295739347,0.6097192911394713,0.5734512702196141,-9.96039,-2.057639,0.003745,-0.022508,0.000174532925199433,-0.003944444109507117,-3.097941846824368
110.27568922305764,0.6097192935829323,0.5734509490790317,-9.948522,-2.057612,0.019767,-0.003498,0.00019198621771937622,-0.005235987755982885,-3.097383638169702
111.27819548872179,0.6097192995170517,0.5734506275893835,-9.952681,-2.057119,0.015591,0.004636,0.001361356816555577,-0.005654866776461542,-3.0944339270140766
112.28070175438596,0.609719305800237,0.5734503069724,-9.960752,-2.051704,0.003929,0.005787,0.0003839724354387525,-0.006195918844579706,-3.0912748810679673
113.28320802005013,0.6097193092908956,0.5734499879262127,-9.974779,-2.052377,-0.021418,0.014792,0.005689773361501514,-0.007208209810736443,-3.087504917523782
114.28571428571428,0.6097193049275725,0.5734496662620314,-9.987096,-2.059093,-0.040444,0.004743,0.008866272600131194,-0.00694641042293731,-3.085375720556104
115.28822055137844,0.6097192996915847,0.573449343201587,-9.985009,-2.059143,-0.027609,-0.010986,-0.0005759586531581288,-0.006544984694978773,-3.08645775487917
116.2907268170426,0.6097192963754592,0.5734490201411424,-9.975599,-2.053487,-0.002029,-0.008329,-0.00043633231299858234,-0.008150687606813367,-3.0880111851799077
117.29323308270676,0.609719298993453,0.5734486983024283,-9.976941,-2.054746,0.003605,0.006365,-6.98131700797731e-05,-0.010367255756846161,-3.08719067099196
118.29573934837092,0.6097193030077103,0.5734483768127802,-9.996167,-2.058918,-0.017464,0.023928,0.003106686068549907,-0.01216494488640052,-3.0854454988195985
119.29824561403508,0.6097192996915847,0.5734480544504673,-10.023881,-2.058285,-0.046592,0.024155,0.00577703982410123,-0.012182398178920417,-3.0845552063681563
120.30075187969925,0.6097192904413398,0.5734477315645556,-10.042578,-2.057328,-0.053677,0.00873,0.0057246799465414016,-0.011274826967883289,-3.0863528256845405
121.3032581453634,0.609719282761891,0.5734474104239733,-10.043728,-2.058032,-0.024353,-0.007202,0.0020594885173533086,-0.010070549784007232,-3.090733741733386
122.30576441102757,0.609719280492963,0.573447088934325,-10.038431,-2.056923,0.017179,-0.001278,-0.001727875959474386,-0.009477137838329153,-3.0942941086877
123.30827067669172,0.6097192857289507,0.5734467669210781,-10.05313,-2.0539,0.018058,0.028011,0.005427973973702366,-0.009808750396208099,-3.092863200500452
124.31077694235589,0.6097192899177409,0.5734464449078311,-10.093459,-2.058393,-0.025823,0.040185,0.006806784082777886,-0.009546951008408966,-3.0902975141401425
