Time [s],Longitude [rad],Latitude [rad],Altitude [m],V North [m/s],V East [m/s],V Down [m/s],Roll [rad],Pitch [rad],Yaw [rad]
0.0,0.6089529961283358,0.573358098959089,-15.011564,1.425806,0.405357,0.003379,0.025656340004316644,-0.0001919862177193199,0.2963918135736771
1.0025062656641603,0.6089530711774936,0.5733583244556284,-15.02178,1.429812,0.414916,0.015234,0.02282890661608583,-0.0016057029118348165,0.30883601114039655
2.0050125313283207,0.6089531493682442,0.5733585508248324,-15.035624,1.439869,0.423692,0.009983,0.013421581947836395,0.0002967059728391508,0.3220655894172211
3.007518796992481,0.6089532301769885,0.5733587787648328,-15.035564,1.439121,0.443871,-0.010288,0.017505652397503124,0.0032812189937494463,0.33784338330854236
4.010025062656641,0.608953315174523,0.5733590063557672,-15.017096,1.421278,0.476583,-0.023136,0.02476622208579954,0.003385938748869055,0.35409239864460956
5.012531328320802,0.608953406106177,0.5733592301069773,-14.996937,1.400079,0.509549,-0.012991,0.027000243528352275,0.00010471975511983089,0.36782812240451235
6.015037593984962,0.6089535036700823,0.5733594505420617,-14.996621,1.392952,0.523758,0.012874,0.020751964806212584,-0.0033510321638290375,0.3783175861155834
7.017543859649122,0.608953602281185,0.5733596701044816,-15.019352,1.400019,0.517786,0.027678,0.015638150097869195,-0.0025481807079117402,0.3888593747976291
8.020050125313283,0.608953700368689,0.5733598917612966,-15.043638,1.407519,0.511305,0.015532,0.015707963267948963,0.0015009831567152077,0.4027521781902115
9.022556390977442,0.6089537965363307,0.5733601141162434,-15.044641,1.401755,0.528239,-0.013487,0.02136283004441059,0.00460766922526501,0.41964698280280915
10.025062656641603,0.608953896194631,0.5733603362966571,-15.020213,1.383009,0.568822,-0.030344,0.028344147052387914,0.003857177646907628,0.43633231299858244
11.027568922305765,0.608954003706913,0.5733605539392148,-14.992844,1.366552,0.607486,-0.019656,0.02696533694331239,0.0,0.4501727914201899
12.030075187969924,0.6089541201203741,0.5733607689637787,-14.986319,1.360579,0.622212,0.005351,0.02129301687433082,-0.0031241393610697,0.4612555972637689
13.032581453634084,0.6089542377555656,0.573360983115678,-15.002513,1.35962,0.620322,0.021099,0.014713125594312199,-0.0030892327760299043,0.4733158223950497
14.035087719298245,0.6089543548671584,0.5733611970930442,-15.024362,1.356829,0.622469,0.017426,0.01788962483294187,-0.0012217304763959547,0.48729592715681685
15.037593984962406,0.6089544723278171,0.5733614117685423,-15.035086,1.349932,0.639058,0.002578,0.02216568150032799,0.0009773843811169414,0.5026722604135944
16.040100250626566,0.6089545924064697,0.5733616255713756,-15.031325,1.341895,0.662339,-0.008433,0.02485348854839925,0.0023561944901924203,0.5176472028489983
17.042606516290725,0.6089547166739124,0.5733618378034127,-15.021228,1.33466,0.681787,-0.010199,0.020210912738094333,0.002670353755551469,0.5320112625929114
18.045112781954884,0.60895484600281,0.573362049337318,-15.011775,1.32462,0.698344,-0.00813,0.020402898955813712,0.0020769418098733894,0.5460262215798409
19.047619047619047,0.608954978996899,0.5733622582532294,-15.003953,1.311765,0.717162,-0.00723,0.023317598806644243,0.0007504915783576038,0.5603728978444045
20.050125313283207,0.6089551149580477,0.5733624654238116,-14.997978,1.2996,0.738162,-0.004939,0.023108159296404925,-0.000366519142918742,0.5743528978864163
21.052631578947366,0.6089552538862563,0.5733626704999988,-14.996851,1.291668,0.753264,0.001757,0.021048670779051613,-0.0013089969389956657,0.5874603729287713
22.05513784461153,0.6089553956069914,0.5733628748780543,-15.003871,1.287318,0.760484,0.010091,0.020682151636132805,-0.0016231562043547143,0.6005503423187288
23.05764411027569,0.6089555392475888,0.5733630782089121,-15.014973,1.284245,0.766566,0.009066,0.01895427567665842,-0.0004886921905582486,0.6149492562878046
24.06015037593985,0.608955683760851,0.5733632818888358,-15.018338,1.278092,0.778698,-0.004792,0.020786871391252463,0.0011693705988362613,0.6306572544623386
25.062656641604008,0.6089558300194422,0.573363484347029,-15.005987,1.265674,0.799301,-0.019697,0.023806290997202658,0.0013613568165555812,0.646679429355524
26.065162907268167,0.6089559815140213,0.5733636845362943,-14.982435,1.246596,0.82868,-0.024674,0.025062928058638575,-0.0008377580409573149,0.6625619255486725
27.06766917293233,0.6089561389427198,0.5733638815839668,-14.962267,1.229765,0.854757,-0.013885,0.025446900494077326,-0.004660029102824703,0.675948566004884
28.07017543859649,0.6089563005602086,0.5733640753155137,-14.95977,1.222418,0.865532,0.007373,0.019669860669976093,-0.007487462491055696,0.6877644799474707
29.07268170426065,0.6089564644466253,0.5733642678253301,-14.977648,1.218297,0.866412,0.024502,0.016406094968746697,-0.007452555906015679,0.7010464006485624
30.075187969924812,0.6089566274603775,0.5733644601606138,-15.00426,1.21507,0.866146,0.024011,0.02029817920069405,-0.005567600313861831,0.7158467752521819
31.07769423558897,0.608956789775998,0.5733646528449633,-15.018672,1.207615,0.877842,0.002028,0.024399702942880727,-0.0026179938779913314,0.7319911231930067
32.08020050125313,0.6089569554077439,0.5733648434349174,-15.006001,1.193695,0.903114,-0.024606,0.027855454861829502,-0.0019722220547535585,0.7486415468037403
33.08270676691729,0.6089571259264118,0.5733650321050096,-14.975887,1.176965,0.931326,-0.029896,0.023317598806644243,-0.004049163864626726,0.7632848766812653
34.08521303258145,0.6089573020301334,0.5733652183316408,-14.954524,1.162062,0.955321,-0.009607,0.020228366030614276,-0.007173303225696648,0.7775790534419287
35.08771929824561,0.6089574840679745,0.5733654010676135,-14.959839,1.14893,0.968547,0.017021,0.016859880574265223,-0.008168140899333487,0.7915766289495082
36.09022556390977,0.6089576669784801,0.5733655815346582,-14.985715,1.14159,0.966175,0.028894,0.017121679962064373,-0.0072954762733361544,0.8053124225225813
37.092731829573935,0.6089578481436564,0.5733657618271699,-15.01149,1.134157,0.964386,0.018698,0.02350958502436362,-0.004869468613064143,0.8204443573242018
38.095238095238095,0.6089580286107009,0.5733659408979511,-15.018751,1.122229,0.979189,-0.003989,0.025795966344476187,-0.0028099800957108734,0.8361174663669887
39.097744360902254,0.6089582115212065,0.5733661183979362,-15.005046,1.107557,1.007364,-0.019966,0.026197392072434888,-0.002583087292951536,0.8509527475556478
40.100250626566414,0.6089583996677,0.5733662915345978,-14.983184,1.076681,1.013824,-0.027511,-0.005951572749300664,-0.005445427266222325,0.8661370771414134
41.10275689223057,0.6089585986352347,0.5733664658929902,-14.961429,1.128904,1.101538,0.000628,0.08737118235483612,-0.07927285462558231,0.8817053966159104
42.10526315789473,0.6089588131361998,0.5733666488034957,-15.032673,1.168253,1.165098,0.158418,-0.02480112867083944,-0.1942027858694091,0.9427221421722172
43.10776942355889,0.608959038807272,0.5733668311904025,-15.246433,1.068346,1.229411,0.25645,-0.06956882398449395,-0.2229483586497556,1.0920350596803319
44.11027568922306,0.608959281582571,0.5733670008364059,-15.511248,0.914184,1.374284,0.276883,0.0763581547747519,-0.23378685330464033,1.2591851723306589
45.11278195488722,0.6089595402403661,0.5733671483167277,-15.816662,0.747167,1.537658,0.342359,0.032253684576855235,-0.25947809989399695,1.3666277458031848
46.11528822055138,0.6089598313612853,0.5733672692680449,-16.184235,0.678805,1.667679,0.397138,0.05012585611727716,-0.2712765256374785,1.3862452640488936
47.11779448621554,0.6089601619266457,0.5733673711952731,-16.602951,0.702985,1.773769,0.449704,0.0331787090804122,-0.2771059253391397,1.366016810751817
48.1203007518797,0.6089604394339968,0.5733674767876928,-17.069811,0.759362,1.859267,0.492067,0.020891591146372096,-0.2741388656107493,1.3439558490066086
49.122807017543856,0.6089607909433081,0.5733675951210162,-17.574337,0.808245,1.935722,0.521385,0.024940755010998978,-0.2590068609959584,1.3343564857607622
50.125313283208015,0.6089611731704143,0.5733677251480456,-18.083025,0.828613,2.014876,0.494675,0.013281955607676837,-0.21718877211817444,1.3361716979960063
51.127819548872175,0.608961566044029,0.5733678619818587,-18.539337,0.84854,2.088413,0.418455,0.007661995416255111,-0.16730724464288382,1.3328729733498597
52.130325814536334,0.6089619693896191,0.573368001608199,-18.912788,0.872734,2.152807,0.327045,0.00987856356628791,-0.12006119924468983,1.3267819313400322
53.1328320802005,0.6089623846034481,0.573368141758138,-19.194441,0.895336,2.215253,0.235919,0.012374384396639798,-0.07974409352362088,1.3227500287817073
54.13533834586466,0.6089628108128515,0.573368286096867,-19.393097,0.92103,2.275583,0.16211,0.006562437987498677,-0.050038589654677335,1.3186835163443158
55.13784461152882,0.6089632478432961,0.5733684351479852,-19.529327,0.946776,2.328729,0.112307,0.006981317007977317,-0.03265511030481383,1.314791449565661
56.14035087719298,0.6089636939494529,0.5733685885624265,-19.626232,0.969038,2.369338,0.081473,0.004276056667386109,-0.02370157124208294,1.311230925531715
57.14285714285714,0.6089641470369268,0.5733687447693945,-19.700157,0.986842,2.397738,0.064405,-0.006754424205218056,-0.01968731396249601,1.308298789841657
58.1453634085213,0.6089646043131908,0.5733689048160869,-19.759787,1.000457,2.419186,0.053019,-0.0027925268031909296,-0.018657569703819377,1.3061521570347518
59.14786967418546,0.6089650650801134,0.5733690659099768,-19.806866,1.012124,2.439879,0.038421,0.0009599310885968797,-0.01677261411166553,1.3056110002468782
60.150375939849624,0.6089655267197005,0.5733692278765314,-19.839405,1.021333,2.464387,0.025785,-0.0005759586531581293,-0.015254177662430424,1.3056633252178529
61.152882205513784,0.6089659937698083,0.5733693914138823,-19.861996,1.031906,2.490394,0.020367,-0.0014137166941154077,-0.014451326206512904,1.3050349543272575
62.15538847117794,0.6089664671031014,0.5733695559984308,-19.881287,1.041873,2.515151,0.020714,-0.0023911010752322333,-0.01605702911834772,1.3048254973637254
63.1578947368421,0.6089669420071909,0.5733697225028415,-19.904057,1.044178,2.514271,0.023675,-0.010716321607245184,-0.01685988057426524,1.3040228204407334
64.16040100250626,0.6089674160386157,0.5733698895308509,-19.929026,1.044369,2.508236,0.022285,-0.01010545636904717,-0.01596976265574801,1.3034293386818852
65.16290726817043,0.6089678881501784,0.5733700541153993,-19.951357,1.038439,2.504136,0.019286,-0.0075921822461753365,-0.013543754995475998,1.3056807785103728
66.16541353383458,0.6089683571201484,0.5733702166055527,-19.971043,1.027989,2.502589,0.018404,-0.002932153143350474,-0.011972958668680977,1.3092237096254586
67.16791979949875,0.6089688252174539,0.5733703782230415,-19.991762,1.024561,2.501043,0.021343,-0.00541052068118242,-0.010437068926925974,1.309747413120812
68.1704260651629,0.6089692941874238,0.5733705396659973,-20.012005,1.028252,2.49871,0.017805,-0.008604473212332046,-0.007714355293814812,1.3090143748349745
69.17293233082707,0.6089697633319268,0.5733707021561506,-20.025667,1.02921,2.496627,0.007624,-0.003857177646907469,-0.005009094953223769,1.3092761742227736
70.17543859649122,0.6089702321273638,0.5733708635991065,-20.028196,1.026581,2.497139,-0.002998,-0.00502654824574367,-0.003769911184307695,1.3098520805160543
71.17794486215539,0.6089707016209327,0.5733710248675293,-20.020782,1.020965,2.500833,-0.009766,-0.004084070449666731,-0.003857177646907406,1.3107771224729037
72.18045112781954,0.6089711714635673,0.5733711849142217,-20.010588,1.015065,2.507136,-0.009065,-0.005550147021341968,-0.005602506898901627,1.3123654419053887
73.1829573934837,0.6089716407826031,0.573371345135447,-20.005411,1.009407,2.511743,-0.001493,-0.005864306286700948,-0.006195918844579706,1.3138489543162915
74.18546365914787,0.6089721107997708,0.5733715030877443,-20.007261,1.014175,2.473145,0.004524,-0.01281071670963838,-0.006684611035138177,1.3226803901445527
75.18796992481202,0.6089725581276579,0.5733716503935332,-20.021828,0.792483,2.359278,0.003439,-0.05811946409141117,0.018744836166419088,1.4865492314412527
76.19047619047619,0.6089729981251625,0.5733717458630433,-19.991814,0.420583,2.321852,-0.050114,0.12276645958528115,0.02242748088812707,1.680717110725622
77.19298245614034,0.6089733904751783,0.5733718242283268,-19.955906,0.057538,2.198338,-0.026482,-0.029810223624063145,0.015254177662430424,1.8687589192420764
78.19548872180451,0.6089737678153625,0.5733718163743451,-19.918886,-0.290901,2.036058,-0.046581,0.06087708430956222,0.020821777976292477,2.0529435326583303
79.19799498746866,0.6089741165321472,0.5733717469102408,-19.86869,-0.603225,1.851592,-0.046657,0.04984660343695804,0.00883136601509138,2.224299976072426
80.20050125313283,0.6089744308659454,0.5733716336383724,-19.827673,-0.872559,1.643669,-0.037446,0.027576202181510412,0.004485496177625503,2.3872088688272366
81.203007518797,0.6089747080242306,0.5733714779550031,-19.797926,-1.09738,1.421143,-0.021965,0.05176646561415182,-0.00010471975511960885,2.5389477939956233
82.20551378446115,0.6089749455635417,0.5733712913793061,-19.788673,-1.280663,1.183147,0.003956,0.030054569719342353,-0.004118977034706539,2.6809653923100347
83.20802005012531,0.6089751375497595,0.5733710774019398,-19.801292,-1.429454,0.934925,0.020097,0.033632494685930735,-0.0044505895925854855,2.8127029140637365
84.21052631578947,0.6089752836338179,0.5733708421315566,-19.821754,-1.550714,0.692398,0.02196,0.03237585762449481,-0.004485496177625281,2.927318441696109
85.21303258145363,0.6089753874809084,0.5733705899314797,-19.837833,-1.645851,0.475147,0.012817,0.031503192998497645,-0.004118977034706539,3.0243238240686616
86.21553884711778,0.608975451534492,0.5733703218489066,-19.843369,-1.720029,0.286163,0.00442,0.029216811678385076,-0.0059166661642606755,3.1064418620809677
87.21804511278195,0.608975483997616,0.5733700427707592,-19.844893,-1.779579,0.121387,0.001941,0.023474678439323736,-0.006492624817418857,-3.1095484259764703
88.22055137844612,0.6089754897572025,0.5733697554895644,-19.849083,-1.829378,-0.020775,0.006808,0.02181661564992912,-0.006719517620178195,-3.0570838984746906
89.22305764411027,0.6089754712567126,0.5733694601798549,-19.858038,-1.873237,-0.14033,0.009327,0.020176006153054444,-0.006300638599699537,-3.0189484892251994
90.22556390977444,0.6089754311141397,0.5733691580633614,-19.866219,-1.915637,-0.231762,0.006852,0.016318828506146986,-0.00567232006898144,-2.9964860668454474
91.22807017543859,0.6089753784051963,0.5733688505363472,-19.868677,-1.957637,-0.291454,-4.1e-05,0.019652407377456146,-0.006143558967020013,-2.9870089290071182
92.23057644110276,0.608975316096942,0.573368535853483,-19.867785,-2.000844,-0.323866,0.000166,0.013857914260834978,-0.008796459430051362,-2.9879514242564875
93.23308270676691,0.6089752509961609,0.5733682145383677,-19.871355,-2.043468,-0.33027,0.006473,0.006876597252857658,-0.011274826967883289,-2.9985979501469457
94.23558897243107,0.608975187815242,0.5733678874636658,-19.883257,-2.083412,-0.317049,0.015345,0.0009075712110370513,-0.012932889757278021,-3.0163303382675757
95.23809523809523,0.6089751296957779,0.5733675542803117,-19.902906,-2.116704,-0.282494,0.02368,0.0035953782591083183,-0.013665928043115505,-3.0407824185413084
96.2406015037594,0.6089750808265588,0.5733672156864369,-19.928833,-2.145852,-0.231193,0.028234,-0.007958701389094143,-0.01244419756671955,-3.06804439164429
97.24310776942356,0.6089750419057165,0.5733668748236339,-19.957029,-2.173002,-0.17396,0.026001,-0.009407324668249438,-0.010105456369047028,-3.095097064863372
98.24561403508771,0.6089750171220412,0.5733665299465737,-19.978926,-2.198439,-0.109003,0.015746,-0.002722713633111154,-0.007906341511534354,-3.1205265120649295
99.24812030075188,0.6089750047302035,0.5733661822769867,-19.987415,-2.218555,-0.043196,0.000886,-0.009093165402890459,-0.005218534463462987,-3.1407372502700985
100.25062656641603,0.6089750047302035,0.5733658307676754,-19.990698,-2.233669,0.012528,0.004336,-0.0036477381366681488,-0.005742133239061253,3.127821988338265
101.2531328320802,0.6089750141549815,0.573365477163969,-20.003777,-2.247288,0.043779,0.01789,-0.011606439525762293,-0.005707226654021458,3.1195142560053575
102.25563909774435,0.6089750289902801,0.5733651214658674,-20.021833,-2.259,0.051549,0.014909,-0.00736528944341607,-0.00274016692563106,3.1163900991909954
103.25814536340852,0.6089750436510457,0.573364762975239,-20.030724,-2.269161,0.057058,0.004,-0.007871434926494426,-0.0013264502315155635,3.1159014070004365
104.26065162907267,0.6089750576136798,0.5733644041355447,-20.029884,-2.275895,0.064106,-0.003169,-0.003211405823669566,-0.0012042771838760569,3.1178385828438104
105.26315789473684,0.6089750736707089,0.5733640440741201,-20.02676,-2.280707,0.065556,-0.000443,0.0013439035240356341,-0.0016929693744345276,3.1226732844981746
106.265664160401,0.6089750911240014,0.5733636840126954,-20.02615,-2.285107,0.055704,0.001028,-0.001239183768915974,-0.0012391837689158525,3.131696619277693
107.26817042606515,0.6089751049121025,0.5733633243003365,-20.026688,-2.288972,0.033796,-0.000878,-0.004118977034706618,-0.0007853981633973994,-3.1408072903329813
108.27067669172932,0.6089751132896829,0.5733629644134448,-20.026819,-2.29288,0.009468,-0.000277,-0.0018500490071139896,0.00040142572795875964,-3.1312779671500173
109.27318295739347,0.6089751159076768,0.5733626029557567,-20.027676,-2.297413,-0.015207,0.001225,-0.0006457718232379017,0.0001221730476397287,-3.1239473399455457
110.27568922305764,0.6089751131151501,0.5733622407999369,-20.031382,-2.301276,-0.03986,0.003069,-0.002059488517353308,0.0004886921905584707,-3.117978401170188
111.27819548872179,0.608975106133833,0.5733618777714525,-20.031637,-2.303889,-0.054573,-0.002429,-0.0007504915783575617,0.0013089969389958878,-3.114958911751067
112.28070175438596,0.6089750974071867,0.5733615159646985,-20.026405,-2.30454,-0.055084,-0.003552,-0.004852015320544237,0.0005410520681183861,-3.1153080474146364
113.28320802005013,0.608975089553205,0.5733611529362143,-20.02342,-2.308154,-0.045812,0.001252,-0.011938052083641213,-0.0005759586531579597,-3.117908622906693
114.28571428571428,0.6089750836190856,0.573360789209598,-20.027699,-2.312482,-0.037119,0.006967,0.001082104136236484,0.0005759586531581817,-3.1209105368602454
115.28822055137844,0.6089750789066966,0.5733604240867185,-20.032654,-2.315029,-0.032197,0.004221,-0.0040491638646268455,0.003106686068550024,-3.124715406989471
116.2907268170426,0.6089750752415052,0.5733600587893062,-20.035984,-2.316238,-0.028439,0.001598,-0.007400196028455958,0.0035255650890286816,-3.128485370533656
117.29323308270676,0.6089750720999125,0.5733596941900254,-20.038618,-2.316589,-0.0198,2.7e-05,-0.005619960191421741,0.004118977034706761,-3.1321679978020716
118.29573934837092,0.6089750727980443,0.5733593285435471,-20.03694,-2.318925,-0.008529,-0.006026,-0.011885692206081384,0.005585053606381951,-3.135379490892204
119.29824561403508,0.6089750745433735,0.5733589630716017,-20.031332,-2.32033,-0.002274,-0.007469,0.0038920842319473555,0.005393067388662631,-3.1373864624523646
120.30075187969925,0.608975075765104,0.5733585969015246,-20.023617,-2.323813,-0.003404,-0.010048,-0.009599310885968817,0.004956735075663854,-3.1367755274009963
121.3032581453634,0.6089750780340321,0.5733582302078488,-20.010698,-2.325988,-0.00127,-0.015331,-0.006265732014659643,0.004921828490624058,-3.135711068543498
122.30576441102757,0.608975082746421,0.5733578642123046,-19.993883,-2.328074,0.010256,-0.015938,-0.005270894341022876,0.004049163864626948,-3.1343496593670643
123.30827067669172,0.6089750885060076,0.5733574989148923,-19.984741,-2.327414,0.019538,-0.001394,-0.006248278722139699,0.0011693705988362613,-3.1323251123413365
124.31077694235589,0.6089750939165282,0.5733571339665456,-19.994761,-2.323954,0.0084,0.016144,0.0009948376736367678,0.0007853981633973994,-3.1278744529355804
125.31328320802004,0.6089750965345221,0.5733567691927319,-20.013189,-2.321696,-0.020646,0.014827,-0.0006457718232379017,0.0030717794835100065,-3.1229001947542265
