Time [s],Longitude [rad],Latitude [rad],Altitude [m],V North [m/s],V East [m/s],V Down [m/s],Roll [rad],Pitch [rad],Yaw [rad]
0.0,0.6096589254366326,0.5734268052413571,-11.233248,1.822875,-0.991922,0.012332,0.027663468644110126,-0.017575465567582826,-0.48214720586343357
1.0025062656641603,0.6096587505546416,0.5734271111975751,-11.246019,1.948266,-0.832126,0.018738,0.01572541656046891,-0.013439035240356167,-0.40676643546979846
2.0050125313283207,0.6096586070885771,0.5734274295456305,-11.279463,2.001715,-0.69956,0.044056,-0.007993607974134032,-0.007592182246175305,-0.34951965345767744
3.007518796992481,0.609658488231655,0.5734277557476678,-11.327631,2.026969,-0.621979,0.042064,-0.008517206749732328,0.0001221730476397287,-0.3055897510915646
4.010025062656641,0.6096583824647024,0.5734280775863819,-11.355957,2.032117,-0.56724,0.00566,-0.01670280094158573,0.009337511498169748,-0.2707007415172458
5.012531328320802,0.6096582869951922,0.5734283994250959,-11.336946,2.040295,-0.497815,-0.043191,-0.00019198621771937663,0.016441001553786583,-0.24237375105140505
6.015037593984962,0.6096582028703224,0.5734287209147442,-11.278131,2.057569,-0.415526,-0.069141,0.008272860654453122,0.021886428820008907,-0.2212729996474734
7.017543859649122,0.6096581344534157,0.5734290458950508,-11.208636,2.066416,-0.348758,-0.06471,-3.490658503988601e-05,0.025761059759436433,-0.20895055624937364
8.020050125313283,0.6096580805227417,0.5734293724461539,-11.163726,2.065628,-0.320051,-0.025098,0.0008203047484373346,0.025551620249196993,-0.2038197071275303
9.022556390977442,0.609658026243002,0.5734296995208558,-11.156609,2.068694,-0.349493,-0.004214,-0.004433136300065598,0.023561944901923537,-0.20317416219709575
10.025062656641603,0.6096579639347477,0.5734300267700906,-11.13455,2.075148,-0.373389,-0.055277,-0.010349802464326374,0.02569124658935662,-0.2003293627828076
11.027568922305765,0.6096578995320984,0.5734303550665228,-11.04705,2.077501,-0.327285,-0.110761,-0.0026354471705114365,0.02811725424962863,-0.1936970243587661
12.030075187969924,0.6096578431579636,0.5734306828393564,-10.944301,2.078699,-0.270222,-0.083773,0.0032288591161895096,0.02588323280707594,-0.19168954665312235
13.032581453634084,0.6096577958595407,0.5734310088668606,-10.893356,2.078495,-0.273611,-0.025004,-0.0075398223686155025,0.021711895894809485,-0.1972747224325515
14.035087719298245,0.6096577480375193,0.5734313369887599,-10.884426,2.076736,-0.319106,-0.010145,-0.008970992355250854,0.018552849948699768,-0.20361038979033919
15.037593984962406,0.6096576918379174,0.573431665983324,-10.858847,2.071753,-0.343242,-0.049378,-0.005497787143782138,0.017819811662862062,-0.20614092521951322
16.040100250626566,0.609657629704196,0.573431992534427,-10.790814,2.069272,-0.313082,-0.083129,0.0032288591161895104,0.016824973989225445,-0.20448282752353308
17.042606516290725,0.6096575740281929,0.5734323203072605,-10.714806,2.075081,-0.272546,-0.06076,-0.0008203047484373351,0.013613568165555812,-0.20739740520131567
18.045112781954884,0.6096575256825725,0.5734326479055611,-10.683571,2.085388,-0.285949,-0.004104,-0.007819075048934598,0.010192722831646961,-0.21642072252754146
19.047619047619047,0.6096574741953596,0.5734329781218557,-10.697202,2.082817,-0.347074,0.017322,-0.013002702927357754,0.00911061869541041,-0.2252517569300754
20.050125313283207,0.6096574090945786,0.5734333060692222,-10.700891,2.065656,-0.385847,-0.01918,-0.010122909661567111,0.009983283321407521,-0.22645657516601966
21.052631578947366,0.6096573377106121,0.5734336312240618,-10.655172,2.055053,-0.35455,-0.065409,0.002094395102393195,0.00961676417848878,-0.22259925789277207
22.05513784461153,0.6096572738315614,0.5734339544590392,-10.589313,2.059466,-0.300351,-0.0535,0.007138396640656806,0.006038839211900404,-0.222232808563023
23.05764411027569,0.6096572207735522,0.5734342789157472,-10.568998,2.071513,-0.302895,0.013537,-0.00614355896702004,0.0019722220547535585,-0.22869043952894
24.06015037593985,0.6096571649230161,0.573434608084844,-10.608521,2.078187,-0.375601,0.047227,-0.011658799403322123,0.001378810109075479,-0.23719017553285873
25.062656641604008,0.6096570958079778,0.5734349344614141,-10.6355,2.034358,-0.40788,-0.004485,-0.018343410438460397,0.005619960191421747,-0.19504033447085625
26.065162907268167,0.6096570347214539,0.5734352610125172,-10.597057,2.10025,-0.234693,-0.062389,0.03787364476827695,0.009983283321407521,-0.10800130572596724
27.06766917293233,0.609656985677702,0.5734355873890874,-10.535094,2.09834,-0.090779,-0.045074,-0.0007330382858376184,0.007120943348136954,-0.06325060991922651
28.07017543859649,0.6096569722386668,0.5734359203979086,-10.517377,2.101954,-0.045792,0.008636,-0.003246312408709453,0.005393067388662631,-0.05016064052926896
29.07268170426065,0.6096569743330618,0.5734362535812628,-10.539702,2.105945,-0.066502,0.024079,0.0,0.005358160803622614,-0.05562385270056971
30.075187969924812,0.6096569699697387,0.5734365874627487,-10.553276,2.098735,-0.083055,-0.006251,-0.0027401669256310974,0.0050963614158234805,-0.07061584700276603
31.07769423558897,0.6096569605449607,0.5734369192498395,-10.526041,2.082834,-0.079288,-0.042898,-0.0037350045992678655,0.002024581932313474,-0.09431797675020917
32.08020050125313,0.6096569498984524,0.5734372477208048,-10.487463,2.078903,-0.086718,-0.022688,0.0016929693744344998,-0.00420624349730625,-0.12522716439108297
33.08270676691729,0.6096569350631537,0.5734375772389676,-10.487562,2.089871,-0.14529,0.025744,-0.008587019919812101,-0.00949459113084905,-0.15603247003487766
34.08521303258145,0.6096569099304124,0.5734379069316633,-10.522575,2.094283,-0.220229,0.034656,-0.022165681500327987,-0.012339477811599942,-0.17249082016142955
35.08771929824561,0.6096568710095701,0.5734382369734249,-10.543262,2.083022,-0.229132,0.004867,-0.006335545184739416,-0.014329153158873398,-0.16400864216978417
36.09022556390977,0.6096568305179315,0.5734385659679888,-10.542326,2.074755,-0.174122,0.003637,0.000139626340159547,-0.01900663555421822,-0.13156281429557765
37.092731829573935,0.6096567998001367,0.5734388937408224,-10.566505,2.08213,-0.1127,0.045931,-0.002495820830351891,-0.02352703831688352,-0.07695203795932783
38.095238095238095,0.6096567816487124,0.5734392232589851,-10.625526,2.098729,-0.03801,0.063368,-0.007714355293814937,-0.024958208303518914,0.002094395102393195
39.097744360902254,0.6096567788561856,0.5734395546970101,-10.679236,2.106135,0.089425,0.040151,0.001989675347273536,-0.024661502330679763,0.10649999095669398
40.100250626566414,0.609656803639861,0.5734398875312985,-10.701916,2.094976,0.295469,0.00966,0.01085594794740473,-0.024556782575560154,0.23183208454240672
41.10275689223057,0.6096568708350372,0.5734402167003954,-10.710947,2.049833,0.548595,0.017092,0.024486969405480445,-0.026808257310632744,0.3661002638983305
42.10526315789473,0.6096569882956959,0.5734405357465826,-10.744713,1.967638,0.790121,0.056492,0.016563174601426187,-0.028344147052387747,0.5045397976198133
43.10776942355889,0.6096571514839809,0.5734408387357408,-10.821802,1.858729,0.991963,0.094229,0.012304571226560023,-0.027209683038591503,0.6472378998095772
44.11027568922306,0.6096573527204437,0.5734411233989418,-10.914551,1.724057,1.190757,0.084838,0.020001473227855008,-0.026720990848033033,0.7946658966321233
45.11278195488722,0.6096575895616232,0.5734413838020661,-10.983402,1.549324,1.404607,0.05509,0.03199188518905605,-0.02850122668506727,0.943437657352365
46.11528822055138,0.609657867592573,0.5734416134873958,-11.02318,1.334134,1.622146,0.034937,0.025987952562195573,-0.026197392072434766,1.0909877748626728
47.11779448621554,0.6096581845443652,0.5734418098369366,-11.05545,1.092366,1.802788,0.039518,0.01761037215262278,-0.018570303241219666,1.2374733462490195
48.1203007518797,0.6096585357046107,0.5734419636004437,-11.097445,0.833927,1.926596,0.050565,0.025848326222036023,-0.011606439525762235,1.3802587323546753
49.122807017543856,0.609658906063478,0.5734420754760488,-11.148803,0.568889,2.002697,0.051631,0.028920105705546043,-0.006841690667817701,1.517860542941786
50.125313283208015,0.6096592877669854,0.5734421445910871,-11.197625,0.297091,2.0453,0.043667,0.020071286397934786,-0.003036872898469989,1.649737621222478
51.127819548872175,0.6096596752300792,0.5734421705964929,-11.229436,0.029778,2.069982,0.018936,0.027436575841350865,0.0018675022996339496,1.7727659325554355
52.130325814536334,0.6096600635658379,0.5734421555866613,-11.233442,-0.219894,2.081616,-0.009877,0.010995574287564275,0.009529497715889068,1.8857060662789409
53.1328320802005,0.6096604532978598,0.5734421013069217,-11.217857,-0.441136,2.05279,-0.019465,0.017243853009703977,0.01638864167622689,1.9897451255370304
54.13533834586466,0.6096608351759002,0.5734420147385907,-11.20177,-0.640503,1.984734,-0.013626,0.003857177646907469,0.020647245051093055,2.086907622448847
55.13784461152882,0.6096612009969113,0.5734418974524651,-11.187449,-0.849813,1.892805,-0.018079,0.0040317105721069035,0.023701571242083164,2.192168534356381
56.14035087719298,0.6096615458739716,0.5734417468305506,-11.158469,-1.045762,1.801143,-0.041681,0.011362093430483083,0.027698375229149974,2.282628652781274
57.14285714285714,0.609661873646805,0.5734415735193559,-11.10784,-1.210461,1.702504,-0.059336,0.005689773361501516,0.02951351765122423,2.3601562130614466
58.1453634085213,0.609662184140879,0.5734413700139651,-11.040249,-1.341097,1.618838,-0.076197,-0.00685914396033772,0.031817352263856735,2.4254838171504245
59.14786967418546,0.6096624808468518,0.57344114835715,-10.959044,-1.43085,1.543281,-0.085449,-0.013264502315156903,0.03569198320328404,2.4817185874490697
60.150375939849624,0.6096627613212626,0.5734409144830303,-10.878011,-1.507709,1.452035,-0.076959,-0.0019024088846738207,0.03752457891787819,2.542822686734439
61.152882205513784,0.609663024167848,0.5734406697878692,-10.810541,-1.597283,1.328021,-0.061461,0.002076941809873254,0.03714060648243933,2.608935671533521
62.15538847117794,0.6096632611835605,0.5734404139226008,-10.756923,-1.692476,1.191347,-0.048536,0.0009773843811168264,0.03324852225049213,2.672605195379812
63.1578947368421,0.6096634732410645,0.5734401432220338,-10.710245,-1.773141,1.066563,-0.047124,-0.0019547687622336494,0.027890361446869516,2.728961946739879
64.16040100250626,0.6096636606894262,0.573439858035234,-10.656484,-1.836355,0.961875,-0.062547,-0.0028623399732707008,0.022322761133007463,2.7775169541704834
65.16290726817043,0.6096638338260881,0.5734395635981893,-10.581731,-1.886955,0.886521,-0.082607,-0.004956735075663895,0.016336281798666974,2.8203648222135294
66.16541353383458,0.6096639956181097,0.573439263052492,-10.492913,-1.926967,0.838987,-0.086955,-0.01452113937659282,0.010821041362364836,2.8579241855434
67.16791979949875,0.6096641500797485,0.5734389586670705,-10.426696,-1.953334,0.789975,-0.040188,-0.017784905077822218,0.005759586531581373,2.889933524024976
68.1704260651629,0.609664293545813,0.5734386500928588,-10.41624,-1.972517,0.697039,0.014626,-0.005393067388662479,0.0015009831567152077,2.917230648059092
69.17293233082707,0.6096644178132558,0.5734383387261203,-10.451449,-1.98527,0.589834,0.046118,-0.004834562028024293,-0.005061454830783463,2.9355390820993423
70.17543859649122,0.6096645197404841,0.5734380259631183,-10.49278,-2.004136,0.527269,0.026757,-0.008656833089891876,-0.011309733552923085,2.942241198786878
71.17794486215539,0.6096646139882637,0.5734377098839908,-10.495621,-2.010776,0.544266,-0.012563,-0.014713125594312199,-0.015533430342749455,2.9401293154853803
72.18045112781954,0.6096647143446956,0.573437392059534,-10.478373,-2.021435,0.584,-0.012411,-0.019547687622336496,-0.018657569703819377,2.935643749494585
73.1829573934837,0.6096648258712349,0.5734370738860113,-10.478003,-2.015705,0.60735,0.020055,-0.019495327744776667,-0.019634954084936096,2.9286273862752275
74.18546365914787,0.60966494193563,0.5734367579814167,-10.523742,-2.012628,0.591959,0.067924,-0.019460421159736774,-0.02069960492865275,2.9203372294078873
75.18796992481202,0.6096650529385705,0.5734364426004208,-10.600751,-2.000341,0.555042,0.074111,4.337963350313731e-19,-0.023073252711365067,2.909690982770109
76.19047619047619,0.6096651566111281,0.5734361294883531,-10.657458,-1.982839,0.56269,0.035369,-0.0016580627893946133,-0.026040312439755242,2.893406816502907
77.19298245614034,0.6096652660432722,0.5734358209141414,-10.673329,-1.95536,0.638413,0.009762,-0.011588986233242348,-0.027872908154349396,2.8747841184775424
78.19548872180451,0.6096653908343138,0.5734355165287197,-10.691357,-1.936859,0.704591,0.035152,-0.007382742735936013,-0.027122416575991792,2.8627937763295117
79.19799498746866,0.6096655260973308,0.5734352158084897,-10.750838,-1.936961,0.706844,0.080482,-0.0027750735106709845,-0.026127578902354953,2.85710393315484
80.20050125313283,0.6096656604876832,0.5734349133429302,-10.834377,-1.945633,0.671461,0.074997,0.00312413936106985,-0.022881266493645525,2.8523741606951054
81.203007518797,0.6096657885948502,0.5734346100047063,-10.888979,-1.93956,0.666162,0.032925,-0.004014257279586958,-0.018884462506578492,2.8440315392304503
82.20551378446115,0.6096659158293528,0.5734343068410152,-10.901268,-1.924838,0.710183,0.000477,-0.0045029494701453706,-0.015201817784870508,2.834763736182605
83.20802005012531,0.6096660523141003,0.5734340059462522,-10.900474,-1.913826,0.757683,0.005471,-0.004677482395344803,-0.01223475805648011,2.8304701913161137
84.21052631578947,0.609666199794422,0.573433705226022,-10.91721,-1.911953,0.769464,0.029795,-0.004049163864626844,-0.009791297103688201,2.832232938954043
85.21303258145363,0.6096663458784805,0.5734334064256541,-10.954091,-1.917292,0.741958,0.037694,0.0035779249665883746,-0.00567232006898144,2.836910508615851
86.21553884711778,0.6096664875992157,0.5734331067526216,-10.982704,-1.920557,0.712543,0.014475,0.005375614096142536,-0.0022514747350725894,2.8409073824160878
87.21804511278195,0.6096666211169035,0.5734328058578584,-10.983833,-1.919153,0.709047,-0.009241,-0.0037175513067479213,-0.00045378560551845304,2.8433857150473347
88.22055137844612,0.6096667535873938,0.5734325053121613,-10.969445,-1.921696,0.719255,-0.013946,-0.002007128639793479,-8.726646259971105e-05,2.8463527573224323
89.22305764411027,0.6096668885013449,0.5734322042428653,-10.952606,-1.933349,0.722887,-0.019975,0.0009424777960769377,0.0009424777960769237,2.8513794626478086
90.22556390977444,0.6096670260332899,0.5734319019518389,-10.928819,-1.935458,0.720086,-0.024779,-5.235987755982984e-05,0.003019419605950313,2.857034154891345
91.22807017543859,0.6096671637397679,0.5734315973918844,-10.909878,-1.927527,0.716988,-0.012108,0.0019198621771937627,0.00422369678982637,2.8617466136849
92.23057644110276,0.6096672977810546,0.5734312952753908,-10.910684,-1.919969,0.695797,0.011136,0.005759586531581288,0.003019419605950313,2.865917933143874
93.23308270676691,0.609667427109952,0.5734309943806278,-10.928569,-1.926552,0.656928,0.018459,0.011676252695842066,0.00036651914291896404,2.8698274532150485
94.23558897243107,0.6096675473631376,0.5734306915660026,-10.935886,-1.940201,0.633722,-0.003504,0.0026354471705114374,-0.0016755160819144077,2.8708745984063677
95.23809523809523,0.6096676663945926,0.5734303852607189,-10.914931,-1.955095,0.648948,-0.037776,-0.0029845130209103037,-0.00274016692563106,2.8683611148439856
96.2406015037594,0.6096677918837657,0.5734300777337047,-10.863598,-1.95331,0.699721,-0.055151,-0.0077318085863348806,-0.002024581932313252,2.8631253365275127
97.24310776942356,0.6096679281939803,0.5734297719520198,-10.81824,-1.940022,0.74051,-0.027068,-0.003926990816987242,-0.0013439035240354613,2.8612403460287736
98.24561403508771,0.6096680695656498,0.573429470359125,-10.818813,-1.924946,0.722601,0.025867,0.001308996938995747,-0.0007504915783576038,2.8638409389741226
99.24812030075188,0.6096682077957264,0.5734291703370266,-10.863105,-1.920275,0.666103,0.051937,0.007452555906015787,-0.0018151424220740342,2.8671570994594973
100.25062656641603,0.6096683313650375,0.5734288704894611,-10.90947,-1.926005,0.625896,0.031542,0.005585053606381854,-0.004153883619746335,2.8675933270527407
101.2531328320802,0.6096684481275645,0.5734285687220334,-10.917042,-1.940763,0.637648,-0.017243,0.0038222710618675813,-0.004886921905584041,2.864207388303872
102.25563909774435,0.609668568206217,0.5734282636384802,-10.876399,-1.953203,0.691303,-0.052818,-0.005078908123303498,-0.00274016692563106,2.859285594719833
103.25814536340852,0.6096687029456352,0.5734279555878672,-10.823138,-1.952352,0.741122,-0.041047,-0.012723450247038665,1.74532925198978e-05,2.856580351832534
104.26065162907267,0.6096688471098315,0.573427650155248,-10.803467,-1.934834,0.748263,0.003344,-0.003996803987067016,0.0020769418098733894,2.85698169029403
105.26315789473684,0.6096689910994948,0.5734273494350179,-10.832372,-1.911981,0.716597,0.047725,0.0005585053606381855,0.0003141592653590486,2.85944272671239
106.265664160401,0.6096691246171826,0.5734270511582488,-10.88426,-1.911018,0.67112,0.044497,0.007958701389094143,-0.0031241393610697,2.863509361322829
107.26817042606515,0.6096692488846253,0.5734267534050784,-10.902527,-1.924357,0.656203,-0.008056,0.007557275661135449,-0.0036128315516281706,2.8647136559599975
108.27067669172932,0.6096693719303375,0.5734264516376507,-10.870017,-1.940405,0.679942,-0.045994,0.0018151424220741027,-0.0024434609527919093,2.8646784875755698
109.27318295739347,0.6096695024809656,0.573426145332367,-10.821469,-1.949951,0.712905,-0.040815,-0.007155849933176752,-0.0001745329251994221,2.8658132657486317
110.27568922305764,0.6096696419327728,0.5734258392016163,-10.796635,-1.947468,0.725881,-0.008698,-0.006667157742618339,0.0007679448708775016,2.8676282161844884
111.27819548872179,0.6096697831299093,0.5734255342925959,-10.803001,-1.933233,0.713617,0.016706,0.00010471975511965975,-0.0006806784082777906,2.8706825947353556
112.28070175438596,0.6096699182183933,0.5734252313034377,-10.827092,-1.920639,0.682856,0.027072,0.004066617157146788,-0.003211405823669411,2.876285084180965
113.28320802005013,0.6096700445802312,0.5734249307577406,-10.853148,-1.923958,0.653513,0.024708,0.010000736613927507,-0.005410520681182307,2.880264644315022
114.28571428571428,0.6096701643098179,0.5734246295139117,-10.871168,-1.943818,0.636635,0.010346,0.005270894341022874,-0.006318091892219435,2.880822835516395
115.28822055137844,0.6096702812468778,0.5734243233831608,-10.865397,-1.955013,0.642711,-0.017099,-0.0039793506945470705,-0.004974188368183752,2.8772800440276494
116.2907268170426,0.6096704053397877,0.5734240153325478,-10.838971,-1.954323,0.678638,-0.025905,-0.0033684854563490567,-0.00460766922526501,2.8714855334577356
117.29323308270676,0.6096705362394815,0.5734237088527312,-10.820819,-1.942748,0.718327,-0.00262,-0.008168140899333463,-0.003403392041388953,2.867331527664942
118.29573934837092,0.6096706748186241,0.5734234058635731,-10.839355,-1.92604,0.715743,0.038629,-0.002426007660272118,-0.0034382986264287485,2.86644151446618
119.29824561403508,0.609670810430707,0.5734231065396064,-10.887096,-1.923014,0.675049,0.045035,0.005724679946541402,-0.005131268000863276,2.8674710841919313
120.30075187969925,0.6096709376652095,0.5734228077392384,-10.914598,-1.92852,0.659821,0.007462,0.004101523742186675,-0.0059166661642606755,2.8669650783351925
121.3032581453634,0.6096710631543827,0.5734225059718107,-10.899743,-1.939886,0.688658,-0.029479,-0.002949606435870417,-0.003944444109507117,2.8657781148174966
122.30576441102757,0.609671195275807,0.5734222014118563,-10.865284,-1.937128,0.726913,-0.027241,-0.005934119456780722,-0.00012217304763950665,2.8649927515606843
123.30827067669172,0.6096713362984106,0.5734218968519018,-10.854335,-1.930831,0.724097,0.008017,3.4906585039886545e-05,0.0023561944901924203,2.8675411242548137
124.31077694235589,0.6096714734812899,0.5734215936882108,-10.870378,-1.930217,0.681832,0.017149,0.006370451769779302,0.0030717794835100065,2.871136397794167
