Time [s],DVL X [m/s],DVL Y [m/s],DVL Z [m/s]
0.0,2.131708914000493,0.31255221692527485,-0.02555451102906538
1.0025062656641603,2.138234960655543,0.2488386118752097,-0.0368379810441101
2.0050125313283207,2.1825590250106246,0.18993539643336546,-0.00418706476817237
3.007518796992481,2.202725163734939,0.14741213941842354,0.015225482946975904
4.010025062656641,2.243103773257902,0.10947969801528153,0.03148449657601458
5.012531328320802,2.271734019536084,0.0684953480354333,-0.0024406921011317674
6.015037593984962,2.295772564493811,-0.006609903675742618,-0.017887191727785332
7.017543859649122,2.328344321330482,-0.06711494003681318,-0.03336984048432216
8.020050125313283,2.3530178016304286,-0.1255325545594512,-0.016021015700704695
9.022556390977442,2.378105243964653,-0.15277399398642827,0.009519871755945408
10.025062656641603,2.400127186130538,-0.17425545059183248,0.016617636358450476
11.027568922305765,2.3967074050731583,-0.19822245309278885,-0.005915137053598325
12.030075187969924,2.3741008046362135,-0.33261716974697825,-0.0837010330831775
13.032581453634084,2.0938863735093016,-0.9767467980042006,0.07232069511976752
14.035087719298245,1.7974442162434658,-0.9868226678171758,0.0519148675920827
15.037593984962406,1.5851849774157922,-0.8226375180200662,0.033194255091493284
16.040100250626566,1.4411223637214414,-0.7207030478972232,0.023460214546708977
17.042606516290725,1.3799094105946321,-0.5735599374473871,0.018525353997276887
18.045112781954884,1.3970167819989452,-0.47257995552667115,0.07071385709831206
19.047619047619047,1.4677149202827986,-0.3825735043647673,0.07144774158305396
20.050125313283207,1.560243758433752,-0.31550917927055006,0.024951118683193597
21.052631578947366,1.6200912400496679,-0.24521487380415785,-0.02962411621534037
22.05513784461153,1.6911095795172886,-0.17694575312964536,-0.011458434764025274
23.05764411027569,1.796040173455754,-0.08579128537904951,0.03732531048812267
24.06015037593985,1.9123957574706116,0.002587321152455448,0.030712299289674276
25.062656641604008,2.0093625929059415,0.13277643399424446,0.013909065787588453
26.065162907268167,2.092746847821345,0.24903186012056233,0.0033118985061321464
27.06766917293233,2.1506828573633747,0.35989928550160255,-0.0440910483402973
28.07017543859649,2.174623860973226,0.4768942549978444,-0.05343910400586182
29.07268170426065,2.1919769635594855,0.556125737257409,-0.004321666627848435
30.075187969924812,2.22305987933444,0.5702735749388437,0.020159393170837817
31.07769423558897,2.2362376026839237,0.6044923881931663,-0.03217896309672442
32.08020050125313,2.202752595926196,0.615689693194299,-0.03308064660360051
33.08270676691729,2.1986245423489486,0.5467823708138816,-0.0012682010983485256
34.08521303258145,2.215545210570203,0.4715991222047695,0.018164428510807247
35.08771929824561,2.2421162833496724,0.4284211903325016,0.005774757426313478
36.09022556390977,2.2432864761214195,0.3856604936260583,-0.010619207684559553
37.092731829573935,2.2875970694515737,0.3238540614680667,0.008707449466362276
38.095238095238095,2.323988271955151,0.24236932219504803,-0.017036009468905548
39.097744360902254,2.341985074664635,0.19329147786981019,-0.014014620115705518
40.100250626566414,2.3749288540812103,0.16686472232074337,-0.013106774367857026
41.10275689223057,2.4045198337875267,0.12372913886414597,0.005244367773145849
42.10526315789473,2.4250400614315537,0.10512743269567133,0.008247990595516182
43.10776942355889,2.423888095248992,0.1391828624989302,0.004142095220625713
44.11027568922306,2.2023079008336435,0.8983975861828565,-0.02290437507395751
45.11278195488722,1.8729892258914664,1.1083107200695024,0.011084730330804543
46.11528822055138,1.6489865544971811,0.9874706056358232,0.010937669529412905
47.11779448621554,1.5167968874106927,0.806822063420437,-0.05207110801799863
48.1203007518797,1.4839926485997308,0.6484069776165436,-0.026277285060197355
49.122807017543856,1.498585023516378,0.5282540956646145,0.003428368996527168
50.125313283208015,1.5537797700323066,0.4745568079993924,0.05448898932610003
51.127819548872175,1.6078899745744546,0.4244541496310215,0.01944511347268994
52.130325814536334,1.67616523444445,0.33609810111777116,-0.03511800391267159
53.1328320802005,1.7733926776982036,0.20387787702702764,-0.04467518088768193
54.13533834586466,1.8856870123116416,0.09431733869798144,-0.02456712887425199
55.13784461152882,1.9799682311467053,-0.021980829248939338,0.0048357829061251795
56.14035087719298,2.04648658558382,-0.11976557343680207,0.03023841792875053
57.14285714285714,2.112288188944558,-0.23279109522973154,0.011569565162926902
58.1453634085213,2.162053816453087,-0.34020809181762,-0.009091309061556366
59.14786967418546,2.1927654564703074,-0.4217554706415496,-0.008160128950527328
60.150375939849624,2.189263475094389,-0.4855844674608611,0.013397506946831438
61.152882205513784,2.177311105660124,-0.5139946862762247,0.022675359972720386
62.15538847117794,2.177111842955156,-0.506753761744292,-0.006028052373153436
63.1578947368421,2.164088794192371,-0.5185171475858374,-0.03877896337521649
64.16040100250626,2.1690828261001474,-0.5032281938071071,-0.011123745953255037
65.16290726817043,2.174202268521134,-0.4364736566141582,0.016516075454514275
66.16541353383458,2.18049414681987,-0.34505150988910827,0.05337086555915868
67.16791979949875,2.2080583520492265,-0.23454206768653604,0.026584767837575272
68.1704260651629,2.2180730516468095,-0.17716635794250152,-0.01959787354788976
69.17293233082707,2.2526978120375323,-0.166605822518324,-0.03203247223219456
70.17543859649122,2.2841556535024172,-0.12853287997266893,-0.02498542424843708
71.17794486215539,2.32453563279342,-0.10339821165515484,-0.002592433067561249
72.18045112781954,2.348742620072308,-0.06831506073142361,-0.008844311116791589
73.1829573934837,2.3680541711028886,-0.041260000158190285,0.007476616558189614
74.18546365914787,2.2751018793553226,0.43391336329641067,0.12353564672868987
75.18796992481202,1.995929330062517,0.8263411742605162,0.0004460324459397535
76.19047619047619,1.8327891008775934,0.785254868345324,0.05437712538622715
77.19298245614034,1.7323167682247165,0.6549882560288843,-0.08974654409900357
78.19548872180451,1.7479444050201327,0.5710935560397378,-0.05492956862838547
79.19799498746866,1.769319216584501,0.4829135320125641,-0.048835325758692205
80.20050125313283,1.7850982683316037,0.4722551529891121,0.06386782351653741
81.203007518797,1.775730597055722,0.474320796863232,0.08747878157105807
82.20551378446115,1.7804078663856895,0.44102942610386786,0.06594398441442098
83.20802005012531,1.8321761588862415,0.3930630544751876,-0.004969889082636227
84.21052631578947,1.9388090311524464,0.3675053428140083,-0.06892080045146061
85.21303258145363,2.085479018683811,0.34170929168549957,-0.0868943941022773
86.21553884711778,2.22705590436556,0.27382004520776076,-0.04948098591294215
87.21804511278195,2.324230195133504,0.17061233125404413,0.015785724523503034
88.22055137844612,2.3707748755272187,-0.004967317979831663,0.07306300155337045
89.22305764411027,2.381185550430635,-0.20563686576838955,0.08435408473396487
90.22556390977444,2.3903322456472176,-0.378063273068739,0.040286900819981465
91.22807017543859,2.400938745293087,-0.4946592917003166,-0.0171269904827949
92.23057644110276,2.4262938829689413,-0.5668526414869618,-0.05615641462691423
93.23308270676691,2.4447794851783997,-0.5949032174651836,-0.05109354348065088
94.23558897243107,2.4493961013225154,-0.6078897601213018,-0.021379237982815186
95.23809523809523,2.4291119313942864,-0.5965236582582086,0.019697521294913856
96.2406015037594,2.400405620473911,-0.5482939765594359,0.05362203695214674
97.24310776942356,2.3750325620962665,-0.48625569737860624,0.05780102652452282
98.24561403508771,2.3834757508138726,-0.41004420717645723,0.03827141025981725
99.24812030075188,2.4327797378738314,-0.35654152470585004,0.018594752376914235
100.25062656641603,2.4798025428591814,-0.29944516945726835,-0.018502394543536776
101.2531328320802,2.526345512616984,-0.2517691081171456,-0.0186909183274813
102.25563909774435,2.563868311542229,-0.17230302559986202,-0.005527909888225574
103.25814536340852,2.5163771191228457,-0.5686701086224206,-0.015492551415809285
104.26065162907267,2.1796242138191495,-1.1678175248468865,0.09460102123521677
105.26315789473684,1.850478810272046,-1.1848133512492474,0.032291168060015155
106.265664160401,1.6136972843100699,-1.0651350274461167,0.09260969354589765
107.26817042606515,1.4369203954818655,-0.941103558211172,0.13014645730679755
108.27067669172932,1.3496145522782768,-0.8145837290524988,0.06175918052104957
109.27318295739347,1.3294637466676296,-0.7075404910267061,0.055656215979503515
110.27568922305764,1.357313627630123,-0.6216736967272611,0.024774677414986034
111.27819548872179,1.4001941598468983,-0.5704149119860542,0.025624011660542477
112.28070175438596,1.4451051079270385,-0.49375403457045935,0.06746310578809402
113.28320802005013,1.534834276102535,-0.3607486748035778,0.06298750920039071
114.28571428571428,1.6202185623708434,-0.24520666456896012,0.0031786358587614
115.28822055137844,1.7096742920094483,-0.15207760072767287,-0.01051020736739471
116.2907268170426,1.7955440299013739,-0.05826148579273979,-0.007784587642011205
117.29323308270676,1.8834518294836327,0.05225535436258342,0.011330941011106804
118.29573934837092,1.9734826172776592,0.15481421089520267,-0.01158868917588753
119.29824561403508,2.016903612226247,0.21839772180839698,-0.022020809172628806
120.30075187969925,2.046108431843059,0.26876961276225775,0.004507552591374588
121.3032581453634,2.0888924669168336,0.3272732676543845,0.0012552616958796353
122.30576441102757,2.100924136216842,0.32957551388427614,-0.06747225313735285
123.30827067669172,2.1238063394026816,0.23851439324100882,-0.05728288953827301
124.31077694235589,2.155750449410464,0.19759488151060614,0.017439177199446272
125.31328320802004,2.19612473200945,0.2285330520518244,0.055207729914365636
126.3157894736842,2.2187037794462614,0.20341948044530977,0.006948978790753926
127.31829573934836,2.2326893997182866,0.11369145864017745,-0.031007792470042417
128.32080200501252,2.2579914241990835,-0.0012654664045533733,-0.027997146786263687
129.32330827067668,2.3051910014060684,-0.057235184358947484,0.0066931400616058925
130.32581453634086,2.3397097445683337,-0.09669364665234645,-0.001626497787361042
131.328320802005,2.3623980951681336,-0.11599564033376643,-0.004782910780459899
132.33082706766916,2.378935785375151,-0.16799259431890506,-0.012006299243231152
133.33333333333331,2.393928310449961,-0.19970334626975414,0.015622904302888383
134.3358395989975,2.399940737577476,-0.20977523304747783,0.0391811103206019
135.33834586466165,2.2336328385826354,-0.7793556834793364,0.07584100293860137
136.3408521303258,1.8841607219771555,-1.0372798661963356,0.0044469623605985845
137.34335839598998,1.660472463005462,-0.8877243906365098,-0.01320155860539235
138.34586466165413,1.494458384255198,-0.7526968260636449,0.026342632500532363
139.34837092731829,1.421859094421049,-0.6216318724193628,0.02863213829861549
140.35087719298244,1.4052246111888032,-0.5022206303322612,0.03276263267722949
141.35338345864662,1.4659601430783789,-0.42247501180076175,0.05096401078766145
142.35588972431077,1.5497449178149463,-0.3439095300936444,0.02909944759807984
143.35839598997492,1.6068570266694604,-0.2823450991193298,-0.012138008579514482
144.36090225563908,1.6790671225881177,-0.1966651193568285,-0.007307629576198234
145.36340852130326,1.771592210988064,-0.10783861134933709,0.012821351241945833
146.3659147869674,1.8472164328968126,-0.011248915930634932,-0.0049172654351979875
147.36842105263156,1.951600517200821,0.12194240400090212,0.031557081946333165
148.37092731829574,2.0709977145514213,0.20166308399777044,0.035186009013499685
149.3734335839599,2.151426816012688,0.2990198430666033,-0.05022943015733425
150.37593984962405,2.1586375589646756,0.4266937387676269,-0.040040105076423534
151.3784461152882,2.193160761580902,0.5162753868239022,-0.01969146306668206
152.38095238095238,2.2151873759641183,0.5607651016101122,0.0017405396874888362
153.38345864661653,2.2316696853499143,0.5776339477447789,0.006799818232482061
154.38596491228068,2.2191873015104706,0.5781999811601327,-0.03210851237752343
155.38847117794487,2.2183053303852307,0.5375982557980687,-0.008516031783957406
156.39097744360902,2.237105580929923,0.49216397764728054,0.02217853819793993
157.39348370927317,2.2419153926603044,0.4356635515374601,-0.03215571519278049
158.39598997493732,2.246495217723232,0.36395872440904914,-0.007550422715801127
159.3984962406015,2.308903900076034,0.31469744194884836,0.04655879836862503
160.40100250626566,2.3419303325586056,0.26506253314824274,-0.0037827561348833835
161.4035087719298,2.3552723826615156,0.22606608779459167,-0.04790286717090814
162.406015037594,2.3495827519745234,0.1614851755480416,-0.03351282429227151
163.40852130325814,2.3787324543506867,0.11038053139264628,0.039174527607020206
164.4110275689223,2.447608112084838,0.11193136015719683,0.04506525530664144
165.41353383458645,2.4563401237711884,0.14463848439567978,-0.03391110721378557
166.41604010025063,2.2863848241560394,0.09547529091279229,-0.0814358393465312
167.41854636591478,2.093900458540283,-0.5497862627165232,0.0783571820510942
168.42105263157893,1.895630637923058,-0.7660077298760329,0.06481172817156826
169.4235588972431,1.8169780059945757,-0.5233977430567958,-0.02824178227426187
170.42606516290726,1.8859194921759659,-0.10357740332140594,-0.022464455767743904
171.42857142857142,1.9609502371719303,0.10391455458569099,-0.03613080561801853
172.43107769423557,2.0505962262937643,0.19125576659274907,-0.014965551603332905
173.43358395989975,2.1346220675306964,0.21547093197291792,0.046217272914965996
174.4360902255639,2.182867120222106,0.18560509600000666,0.059369398919618774
175.43859649122805,2.1541962913505395,0.19176720334975084,-0.02868271186614019
176.44110275689223,2.0887877964408106,0.2453369567015872,-0.09405685963471472
177.4436090225564,2.0631890575364067,0.2805620862078564,-0.03963940537810054
178.44611528822054,2.073764976803361,0.2676567922254468,0.027980662596476608
179.4486215538847,2.057940033937442,0.24571124360444413,-0.00578192847727849
180.45112781954887,2.0192240392536993,0.26336581877570725,-0.026142759505765664
181.45363408521303,2.0018163528842416,0.2704117670390071,-0.009676861736937666
182.45614035087718,1.9838727276376504,0.25642474355298167,-0.005505339711191348
183.45864661654133,1.9598561487079098,0.2583070974211369,-0.023866356334095912
184.4611528822055,1.9184292588616998,0.2643334672374535,-0.03396273892921321
185.46365914786966,1.9039286351561913,0.26996381018210824,-0.01750842777751753
186.46616541353382,1.8951361190257767,0.2901642430596079,0.021473564086136977
187.468671679198,1.8766520985301292,0.2638499106948168,0.03487652612860311
188.47117794486215,1.8660604637161933,0.23254592612006192,0.012372799976880167
189.4736842105263,1.83247137203798,0.23938397170337927,-0.03158161957147781
190.47619047619045,1.805285272876779,0.2716808610295153,-0.027387742814506125
191.47869674185463,1.7841909461592669,0.2808539413095962,-0.016034545929485333
192.4812030075188,1.765514304490756,0.2719357142751507,0.0014654662004569316
193.48370927318294,1.7629460625512778,0.25161300012766946,0.026082831128898785
194.48621553884712,1.6606167467663489,0.5620937961279251,0.016133896108707392
195.48872180451127,1.5609800933021205,0.8653363781206309,-0.0666047621463445
196.49122807017542,1.4479164228340786,0.9901208977642398,-0.050835772876013756
197.49373433583958,1.3438066281660515,0.9714798590266022,-0.036085777317940985
198.49624060150376,1.324186531479176,0.8458292716066916,-0.06160493408357667
199.4987468671679,1.3488325167134994,0.7315970296167267,-0.04014087690009901
200.50125313283206,1.3993756369559542,0.640872049998588,0.005822276249408571
201.50375939849624,1.470480605170908,0.5743074295087606,0.003521960141652246
202.5062656641604,1.5307217647129514,0.4996350489001773,-0.022312337609147553
203.50877192982455,1.6064946883514741,0.4012267001690173,-0.038972756009567
204.5112781954887,1.6845571402465898,0.3006763128814151,-0.033090072911191405
205.51378446115288,1.701184020178619,0.1885219752708937,-0.017746362412388292
206.51629072681703,1.6962900464183754,0.06016328611243084,0.007934012358147141
207.51879699248119,1.7025625868017555,-0.03326847463887308,0.026387751194760778
208.52130325814534,1.7069962785760067,-0.10788385386811045,0.005889059706570119
209.52380952380952,1.7166296912821062,-0.18460670446611513,0.009973493663707264
210.52631578947367,1.731876228249129,-0.24676402504080827,0.011982791921317858
211.52882205513782,1.7375112940132054,-0.2952662779332594,0.005824605565639059
212.531328320802,1.7456477838578333,-0.3060391821099985,0.01604789087942451
213.53383458646616,1.7578291950184224,-0.2935700805311055,0.018048566753205538
214.5363408521303,1.7538930051674426,-0.2653429355815757,0.02728084948583835
215.53884711779446,1.7579586765488486,-0.23629878454204437,0.039559738833466716
216.54135338345864,1.7480424230411309,-0.19799751706041996,0.03343575151540999
217.5438596491228,1.7399009753799302,-0.18722396503233146,0.02321248473428755
218.54636591478695,1.7120983164160406,-0.1745133761863698,-0.0033382334241080893
219.54887218045113,1.6868853327732563,-0.12697295344826173,-0.0032559551724721117
220.55137844611528,1.6846807957918004,-0.05160285208838436,0.0346602453056769
221.55388471177943,1.6757714899658205,-0.02705732613447835,0.05928939970336756
222.55639097744358,1.6525727151184089,-0.03458990970603224,0.03272678546235882
223.55889724310777,1.6252651249865204,-0.009556264836874623,-0.016381295886373413
224.56140350877192,1.5764955961895804,0.05944334368658893,-0.04389313222154366
225.56390977443607,1.5577629683849006,0.11794149594350484,-0.019236095374873825
226.56641604010025,1.5490690118337251,0.13234532727870665,0.026921144050305594
227.5689223057644,1.5405889460418078,0.11774899628205227,0.03823317227697027
228.57142857142856,1.5257647366215736,0.13351068655577622,0.0024075895632133626
229.5739348370927,1.495367045444902,0.18025732160209496,-0.028243573432242
230.5764411027569,1.4920499452716534,0.21356178472840512,-0.03336510301908251
231.57894736842104,1.4803727551151498,0.21776927008655309,-0.041523236997500844
232.5814536340852,1.471604215260867,0.22781579840907948,-0.02816677210260697
233.58395989974937,1.4788802278694733,0.23370871553223985,-0.0025686383561993945
234.58646616541353,1.4888521871109863,0.24977555494035752,0.002515423437225155
235.58897243107768,1.4924392469752634,0.25199251037610904,0.00045027353322689407
236.59147869674183,1.477215978599605,0.24673310234605678,-0.017941991910054054
237.593984962406,1.4663224180445265,0.24152337942834742,-0.039425630604500786
238.59649122807016,1.4618558262825925,0.25161859569848366,-0.03838649996237848
239.59899749373432,1.4700229701985936,0.2452001727068543,-0.00868836895122147
240.6015037593985,1.4817824402361346,0.23664438057035966,0.007670689559379779
241.60401002506265,1.4963175130292623,0.22666545995726825,-0.014933619195724815
242.6065162907268,1.4836949901972944,0.2388286125799725,-0.05384155830374297
243.60902255639095,1.4618190337642716,0.2545167935685931,-0.03838714516675288
244.61152882205513,1.4762639674221123,0.2206361002767949,0.03229801978097632
245.6140350877193,1.5021637739235931,0.17962997529625951,0.04041144083910969
246.61654135338344,1.4872271258541028,0.18958077138958757,-0.04359149036306442
247.6190476190476,1.4567591000689966,0.23632311386451185,-0.09269251882189612
248.62155388471177,1.4648718485647423,0.25166208093928805,-0.008670679720840352
249.62406015037593,1.5056818551081288,0.19199752448563429,0.051670900587579595
250.62656641604008,1.5059265553486734,0.15574519514302915,0.00145142500262778
251.62907268170426,1.4932381932795318,0.16935399801632192,-0.05180875945403956
